#       Energy(Ry)            Total                 X                  Y                   Z
      0.00000000E+00      0.00000000E+00      0.00000000E+00      0.00000000E+00      0.00000000E+00
      0.10000000E-02      0.36671322E-05      0.12222756E-05      0.12222468E-05      0.12226098E-05
      0.20000000E-02      0.73561308E-05      0.24518394E-05      0.24517816E-05      0.24525097E-05
      0.30000000E-02      0.11067143E-04      0.36887406E-05      0.36886538E-05      0.36897489E-05
      0.40000000E-02      0.14800318E-04      0.49330286E-05      0.49329128E-05      0.49343770E-05
      0.50000000E-02      0.18555806E-04      0.61847536E-05      0.61846086E-05      0.61864440E-05
      0.60000000E-02      0.22333758E-04      0.74439658E-05      0.74437917E-05      0.74460002E-05
      0.70000000E-02      0.26134325E-04      0.87107161E-05      0.87105127E-05      0.87130965E-05
      0.80000000E-02      0.29957663E-04      0.99850557E-05      0.99848229E-05      0.99877841E-05
      0.90000000E-02      0.33803925E-04      0.11267036E-04      0.11266774E-04      0.11270115E-04
      0.10000000E-01      0.37673267E-04      0.12556709E-04      0.12556418E-04      0.12560140E-04
      0.11000000E-01      0.41565847E-04      0.13854128E-04      0.13853807E-04      0.13857913E-04
      0.12000000E-01      0.45481825E-04      0.15159345E-04      0.15158994E-04      0.15163486E-04
      0.13000000E-01      0.49421358E-04      0.16472413E-04      0.16472033E-04      0.16476912E-04
      0.14000000E-01      0.53384610E-04      0.17793387E-04      0.17792977E-04      0.17798246E-04
      0.15000000E-01      0.57371742E-04      0.19122320E-04      0.19121880E-04      0.19127542E-04
      0.16000000E-01      0.61382918E-04      0.20459267E-04      0.20458797E-04      0.20464854E-04
      0.17000000E-01      0.65418304E-04      0.21804283E-04      0.21803784E-04      0.21810237E-04
      0.18000000E-01      0.69478066E-04      0.23157424E-04      0.23156895E-04      0.23163747E-04
      0.19000000E-01      0.73562372E-04      0.24518746E-04      0.24518186E-04      0.24525439E-04
      0.20000000E-01      0.77671391E-04      0.25888304E-04      0.25887715E-04      0.25895371E-04
      0.21000000E-01      0.81805294E-04      0.27266157E-04      0.27265538E-04      0.27273600E-04
      0.22000000E-01      0.85964254E-04      0.28652361E-04      0.28651712E-04      0.28660181E-04
      0.23000000E-01      0.90148444E-04      0.30046974E-04      0.30046295E-04      0.30055175E-04
      0.24000000E-01      0.94358038E-04      0.31450055E-04      0.31449345E-04      0.31458638E-04
      0.25000000E-01      0.98593214E-04      0.32861663E-04      0.32860922E-04      0.32870629E-04
      0.26000000E-01      0.10285415E-03      0.34281855E-04      0.34281085E-04      0.34291209E-04
      0.27000000E-01      0.10714102E-03      0.35710694E-04      0.35709892E-04      0.35720436E-04
      0.28000000E-01      0.11145402E-03      0.37148238E-04      0.37147406E-04      0.37158372E-04
      0.29000000E-01      0.11579331E-03      0.38594549E-04      0.38593686E-04      0.38605076E-04
      0.30000000E-01      0.12015909E-03      0.40049687E-04      0.40048794E-04      0.40060611E-04
      0.31000000E-01      0.12455154E-03      0.41513715E-04      0.41512792E-04      0.41525037E-04
      0.32000000E-01      0.12897086E-03      0.42986696E-04      0.42985741E-04      0.42998418E-04
      0.33000000E-01      0.13341721E-03      0.44468691E-04      0.44467706E-04      0.44480816E-04
      0.34000000E-01      0.13789081E-03      0.45959764E-04      0.45958748E-04      0.45972295E-04
      0.35000000E-01      0.14239183E-03      0.47459980E-04      0.47458933E-04      0.47472919E-04
      0.36000000E-01      0.14692048E-03      0.48969402E-04      0.48968324E-04      0.48982751E-04
      0.37000000E-01      0.15147694E-03      0.50488096E-04      0.50486987E-04      0.50501858E-04
      0.38000000E-01      0.15606142E-03      0.52016127E-04      0.52014987E-04      0.52030304E-04
      0.39000000E-01      0.16067411E-03      0.53553561E-04      0.53552390E-04      0.53568156E-04
      0.40000000E-01      0.16531521E-03      0.55100465E-04      0.55099263E-04      0.55115481E-04
      0.41000000E-01      0.16998493E-03      0.56656907E-04      0.56655674E-04      0.56672345E-04
      0.42000000E-01      0.17468346E-03      0.58222953E-04      0.58221689E-04      0.58238817E-04
      0.43000000E-01      0.17941101E-03      0.59798673E-04      0.59797377E-04      0.59814965E-04
      0.44000000E-01      0.18416780E-03      0.61384135E-04      0.61382808E-04      0.61400857E-04
      0.45000000E-01      0.18895402E-03      0.62979409E-04      0.62978051E-04      0.62996564E-04
      0.46000000E-01      0.19376990E-03      0.64584565E-04      0.64583176E-04      0.64602156E-04
      0.47000000E-01      0.19861563E-03      0.66199674E-04      0.66198253E-04      0.66217703E-04
      0.48000000E-01      0.20349144E-03      0.67824807E-04      0.67823355E-04      0.67843277E-04
      0.49000000E-01      0.20839754E-03      0.69460037E-04      0.69458553E-04      0.69478950E-04
      0.50000000E-01      0.21333415E-03      0.71105435E-04      0.71103919E-04      0.71124794E-04
      0.51000000E-01      0.21830149E-03      0.72761075E-04      0.72759528E-04      0.72780883E-04
      0.52000000E-01      0.22329977E-03      0.74427030E-04      0.74425452E-04      0.74447291E-04
      0.53000000E-01      0.22832923E-03      0.76103376E-04      0.76101766E-04      0.76124091E-04
      0.54000000E-01      0.23339009E-03      0.77790188E-04      0.77788546E-04      0.77811360E-04
      0.55000000E-01      0.23848258E-03      0.79487540E-04      0.79485867E-04      0.79509172E-04
      0.56000000E-01      0.24360692E-03      0.81195511E-04      0.81193805E-04      0.81217605E-04
      0.57000000E-01      0.24876335E-03      0.82914176E-04      0.82912439E-04      0.82936736E-04
      0.58000000E-01      0.25395210E-03      0.84643614E-04      0.84641844E-04      0.84666642E-04
      0.59000000E-01      0.25917341E-03      0.86383902E-04      0.86382101E-04      0.86407402E-04
      0.60000000E-01      0.26442750E-03      0.88135121E-04      0.88133288E-04      0.88159095E-04
      0.61000000E-01      0.26971464E-03      0.89897350E-04      0.89895485E-04      0.89921801E-04
      0.62000000E-01      0.27503504E-03      0.91670669E-04      0.91668772E-04      0.91695600E-04
      0.63000000E-01      0.28038897E-03      0.93455160E-04      0.93453232E-04      0.93480574E-04
      0.64000000E-01      0.28577665E-03      0.95250905E-04      0.95248945E-04      0.95276805E-04
      0.65000000E-01      0.29119836E-03      0.97057987E-04      0.97055994E-04      0.97084375E-04
      0.66000000E-01      0.29665432E-03      0.98876488E-04      0.98874463E-04      0.98903368E-04
      0.67000000E-01      0.30214480E-03      0.10070649E-03      0.10070444E-03      0.10073387E-03
      0.68000000E-01      0.30767005E-03      0.10254809E-03      0.10254600E-03      0.10257596E-03
      0.69000000E-01      0.31323032E-03      0.10440136E-03      0.10439924E-03      0.10442973E-03
      0.70000000E-01      0.31882588E-03      0.10626639E-03      0.10626423E-03      0.10629526E-03
      0.71000000E-01      0.32445699E-03      0.10814326E-03      0.10814108E-03      0.10817265E-03
      0.72000000E-01      0.33012391E-03      0.11003208E-03      0.11002986E-03      0.11006197E-03
      0.73000000E-01      0.33582691E-03      0.11193292E-03      0.11193067E-03      0.11196333E-03
      0.74000000E-01      0.34156625E-03      0.11384587E-03      0.11384359E-03      0.11387680E-03
      0.75000000E-01      0.34734222E-03      0.11577103E-03      0.11576871E-03      0.11580247E-03
      0.76000000E-01      0.35315507E-03      0.11770848E-03      0.11770614E-03      0.11774045E-03
      0.77000000E-01      0.35900509E-03      0.11965832E-03      0.11965595E-03      0.11969082E-03
      0.78000000E-01      0.36489256E-03      0.12162065E-03      0.12161824E-03      0.12165367E-03
      0.79000000E-01      0.37081775E-03      0.12359554E-03      0.12359310E-03      0.12362910E-03
      0.80000000E-01      0.37678095E-03      0.12558311E-03      0.12558063E-03      0.12561720E-03
      0.81000000E-01      0.38278245E-03      0.12758344E-03      0.12758093E-03      0.12761807E-03
      0.82000000E-01      0.38882253E-03      0.12959663E-03      0.12959409E-03      0.12963181E-03
      0.83000000E-01      0.39490149E-03      0.13162278E-03      0.13162021E-03      0.13165850E-03
      0.84000000E-01      0.40101961E-03      0.13366198E-03      0.13365938E-03      0.13369825E-03
      0.85000000E-01      0.40717721E-03      0.13571434E-03      0.13571170E-03      0.13575116E-03
      0.86000000E-01      0.41337456E-03      0.13777995E-03      0.13777728E-03      0.13781733E-03
      0.87000000E-01      0.41961199E-03      0.13985892E-03      0.13985622E-03      0.13989686E-03
      0.88000000E-01      0.42588979E-03      0.14195134E-03      0.14194861E-03      0.14198984E-03
      0.89000000E-01      0.43220827E-03      0.14405732E-03      0.14405455E-03      0.14409639E-03
      0.90000000E-01      0.43856774E-03      0.14617696E-03      0.14617417E-03      0.14621661E-03
      0.91000000E-01      0.44496851E-03      0.14831037E-03      0.14830754E-03      0.14835059E-03
      0.92000000E-01      0.45141090E-03      0.15045765E-03      0.15045479E-03      0.15049845E-03
      0.93000000E-01      0.45789523E-03      0.15261892E-03      0.15261602E-03      0.15266029E-03
      0.94000000E-01      0.46442182E-03      0.15479426E-03      0.15479133E-03      0.15483623E-03
      0.95000000E-01      0.47099100E-03      0.15698380E-03      0.15698084E-03      0.15702635E-03
      0.96000000E-01      0.47760309E-03      0.15918764E-03      0.15918465E-03      0.15923079E-03
      0.97000000E-01      0.48425842E-03      0.16140590E-03      0.16140288E-03      0.16144964E-03
      0.98000000E-01      0.49095734E-03      0.16363868E-03      0.16363563E-03      0.16368303E-03
      0.99000000E-01      0.49770017E-03      0.16588610E-03      0.16588302E-03      0.16593105E-03
      0.10000000E+00      0.50448725E-03      0.16814827E-03      0.16814515E-03      0.16819383E-03
      0.10100000E+00      0.51131894E-03      0.17042531E-03      0.17042216E-03      0.17047148E-03
      0.10200000E+00      0.51819558E-03      0.17271733E-03      0.17271414E-03      0.17276411E-03
      0.10300000E+00      0.52511751E-03      0.17502444E-03      0.17502122E-03      0.17507184E-03
      0.10400000E+00      0.53208509E-03      0.17734677E-03      0.17734352E-03      0.17739480E-03
      0.10500000E+00      0.53909868E-03      0.17968443E-03      0.17968116E-03      0.17973309E-03
      0.10600000E+00      0.54615863E-03      0.18203755E-03      0.18203424E-03      0.18208684E-03
      0.10700000E+00      0.55326532E-03      0.18440625E-03      0.18440290E-03      0.18445617E-03
      0.10800000E+00      0.56041910E-03      0.18679064E-03      0.18678726E-03      0.18684120E-03
      0.10900000E+00      0.56762035E-03      0.18919085E-03      0.18918744E-03      0.18924206E-03
      0.11000000E+00      0.57486944E-03      0.19160701E-03      0.19160357E-03      0.19165886E-03
      0.11100000E+00      0.58216675E-03      0.19403924E-03      0.19403577E-03      0.19409174E-03
      0.11200000E+00      0.58951267E-03      0.19648767E-03      0.19648417E-03      0.19654083E-03
      0.11300000E+00      0.59690756E-03      0.19895242E-03      0.19894889E-03      0.19900625E-03
      0.11400000E+00      0.60435183E-03      0.20143364E-03      0.20143007E-03      0.20148812E-03
      0.11500000E+00      0.61184587E-03      0.20393143E-03      0.20392784E-03      0.20398659E-03
      0.11600000E+00      0.61939006E-03      0.20644595E-03      0.20644233E-03      0.20650178E-03
      0.11700000E+00      0.62698482E-03      0.20897732E-03      0.20897367E-03      0.20903383E-03
      0.11800000E+00      0.63463054E-03      0.21152568E-03      0.21152199E-03      0.21158287E-03
      0.11900000E+00      0.64232763E-03      0.21409116E-03      0.21408744E-03      0.21414904E-03
      0.12000000E+00      0.65007651E-03      0.21667390E-03      0.21667015E-03      0.21673247E-03
      0.12100000E+00      0.65787759E-03      0.21927403E-03      0.21927025E-03      0.21933330E-03
      0.12200000E+00      0.66573128E-03      0.22189171E-03      0.22188790E-03      0.22195167E-03
      0.12300000E+00      0.67363801E-03      0.22452706E-03      0.22452322E-03      0.22458773E-03
      0.12400000E+00      0.68159821E-03      0.22718023E-03      0.22717636E-03      0.22724162E-03
      0.12500000E+00      0.68961232E-03      0.22985137E-03      0.22984747E-03      0.22991347E-03
      0.12600000E+00      0.69768076E-03      0.23254062E-03      0.23253669E-03      0.23260344E-03
      0.12700000E+00      0.70580397E-03      0.23524813E-03      0.23524417E-03      0.23531167E-03
      0.12800000E+00      0.71398241E-03      0.23797404E-03      0.23797005E-03      0.23803831E-03
      0.12900000E+00      0.72221652E-03      0.24071851E-03      0.24071449E-03      0.24078351E-03
      0.13000000E+00      0.73050675E-03      0.24348169E-03      0.24347763E-03      0.24354743E-03
      0.13100000E+00      0.73885356E-03      0.24626372E-03      0.24625964E-03      0.24633020E-03
      0.13200000E+00      0.74725742E-03      0.24906477E-03      0.24906065E-03      0.24913200E-03
      0.13300000E+00      0.75571879E-03      0.25188498E-03      0.25188084E-03      0.25195297E-03
      0.13400000E+00      0.76423814E-03      0.25472452E-03      0.25472035E-03      0.25479326E-03
      0.13500000E+00      0.77281594E-03      0.25758355E-03      0.25757935E-03      0.25765305E-03
      0.13600000E+00      0.78145269E-03      0.26046222E-03      0.26045799E-03      0.26053249E-03
      0.13700000E+00      0.79014886E-03      0.26336069E-03      0.26335643E-03      0.26343174E-03
      0.13800000E+00      0.79890495E-03      0.26627914E-03      0.26627485E-03      0.26635096E-03
      0.13900000E+00      0.80772145E-03      0.26921772E-03      0.26921340E-03      0.26929033E-03
      0.14000000E+00      0.81659886E-03      0.27217660E-03      0.27217226E-03      0.27225000E-03
      0.14100000E+00      0.82553769E-03      0.27515596E-03      0.27515158E-03      0.27523015E-03
      0.14200000E+00      0.83453845E-03      0.27815595E-03      0.27815155E-03      0.27823094E-03
      0.14300000E+00      0.84360165E-03      0.28117676E-03      0.28117233E-03      0.28125256E-03
      0.14400000E+00      0.85272782E-03      0.28421855E-03      0.28421410E-03      0.28429516E-03
      0.14500000E+00      0.86191747E-03      0.28728151E-03      0.28727703E-03      0.28735893E-03
      0.14600000E+00      0.87117115E-03      0.29036581E-03      0.29036129E-03      0.29044405E-03
      0.14700000E+00      0.88048939E-03      0.29347162E-03      0.29346708E-03      0.29355069E-03
      0.14800000E+00      0.88987273E-03      0.29659913E-03      0.29659456E-03      0.29667904E-03
      0.14900000E+00      0.89932172E-03      0.29974853E-03      0.29974393E-03      0.29982927E-03
      0.15000000E+00      0.90883692E-03      0.30291998E-03      0.30291536E-03      0.30300157E-03
      0.15100000E+00      0.91841888E-03      0.30611370E-03      0.30610905E-03      0.30619613E-03
      0.15200000E+00      0.92806816E-03      0.30932985E-03      0.30932518E-03      0.30941314E-03
      0.15300000E+00      0.93778535E-03      0.31256863E-03      0.31256393E-03      0.31265278E-03
      0.15400000E+00      0.94757101E-03      0.31583024E-03      0.31582551E-03      0.31591526E-03
      0.15500000E+00      0.95742573E-03      0.31911486E-03      0.31911011E-03      0.31920076E-03
      0.15600000E+00      0.96735010E-03      0.32242270E-03      0.32241792E-03      0.32250947E-03
      0.15700000E+00      0.97734471E-03      0.32575395E-03      0.32574915E-03      0.32584161E-03
      0.15800000E+00      0.98741016E-03      0.32910881E-03      0.32910399E-03      0.32919736E-03
      0.15900000E+00      0.99754706E-03      0.33248749E-03      0.33248264E-03      0.33257693E-03
      0.16000000E+00      0.10077560E-02      0.33589018E-03      0.33588531E-03      0.33598053E-03
      0.16100000E+00      0.10180377E-02      0.33931710E-03      0.33931220E-03      0.33940836E-03
      0.16200000E+00      0.10283926E-02      0.34276846E-03      0.34276354E-03      0.34286063E-03
      0.16300000E+00      0.10388215E-02      0.34624446E-03      0.34623951E-03      0.34633756E-03
      0.16400000E+00      0.10493250E-02      0.34974532E-03      0.34974035E-03      0.34983934E-03
      0.16500000E+00      0.10599037E-02      0.35327125E-03      0.35326626E-03      0.35336621E-03
      0.16600000E+00      0.10705583E-02      0.35682248E-03      0.35681746E-03      0.35691838E-03
      0.16700000E+00      0.10812895E-02      0.36039922E-03      0.36039417E-03      0.36049606E-03
      0.16800000E+00      0.10920978E-02      0.36400169E-03      0.36399662E-03      0.36409949E-03
      0.16900000E+00      0.11029840E-02      0.36763012E-03      0.36762503E-03      0.36772888E-03
      0.17000000E+00      0.11139488E-02      0.37128473E-03      0.37127963E-03      0.37138446E-03
      0.17100000E+00      0.11249929E-02      0.37496576E-03      0.37496063E-03      0.37506647E-03
      0.17200000E+00      0.11361169E-02      0.37867344E-03      0.37866829E-03      0.37877513E-03
      0.17300000E+00      0.11473215E-02      0.38240800E-03      0.38240283E-03      0.38251068E-03
      0.17400000E+00      0.11586075E-02      0.38616968E-03      0.38616449E-03      0.38627335E-03
      0.17500000E+00      0.11699756E-02      0.38995872E-03      0.38995351E-03      0.39006339E-03
      0.17600000E+00      0.11814265E-02      0.39377535E-03      0.39377012E-03      0.39388104E-03
      0.17700000E+00      0.11929610E-02      0.39761984E-03      0.39761459E-03      0.39772654E-03
      0.17800000E+00      0.12045797E-02      0.40149241E-03      0.40148714E-03      0.40160013E-03
      0.17900000E+00      0.12162834E-02      0.40539333E-03      0.40538804E-03      0.40550208E-03
      0.18000000E+00      0.12280730E-02      0.40932284E-03      0.40931753E-03      0.40943263E-03
      0.18100000E+00      0.12399491E-02      0.41328120E-03      0.41327588E-03      0.41339204E-03
      0.18200000E+00      0.12519126E-02      0.41726867E-03      0.41726333E-03      0.41738056E-03
      0.18300000E+00      0.12639641E-02      0.42128551E-03      0.42128015E-03      0.42139846E-03
      0.18400000E+00      0.12761046E-02      0.42533198E-03      0.42532661E-03      0.42544600E-03
      0.18500000E+00      0.12883348E-02      0.42940835E-03      0.42940297E-03      0.42952345E-03
      0.18600000E+00      0.13006555E-02      0.43351490E-03      0.43350949E-03      0.43363108E-03
      0.18700000E+00      0.13130675E-02      0.43765188E-03      0.43764647E-03      0.43776916E-03
      0.18800000E+00      0.13255717E-02      0.44181959E-03      0.44181416E-03      0.44193796E-03
      0.18900000E+00      0.13381689E-02      0.44601829E-03      0.44601284E-03      0.44613777E-03
      0.19000000E+00      0.13508599E-02      0.45024827E-03      0.45024281E-03      0.45036886E-03
      0.19100000E+00      0.13636457E-02      0.45450981E-03      0.45450434E-03      0.45463153E-03
      0.19200000E+00      0.13765270E-02      0.45880321E-03      0.45879772E-03      0.45892606E-03
      0.19300000E+00      0.13895047E-02      0.46312875E-03      0.46312325E-03      0.46325274E-03
      0.19400000E+00      0.14025798E-02      0.46748673E-03      0.46748122E-03      0.46761186E-03
      0.19500000E+00      0.14157531E-02      0.47187744E-03      0.47187192E-03      0.47200373E-03
      0.19600000E+00      0.14290255E-02      0.47630119E-03      0.47629566E-03      0.47642865E-03
