#          \hbar \omega(Ry)    Oscillator strength
       0.000000000000000E+00  0.000000000000000E+00
       0.100000000000000E-02  0.654115903170364E-07
       0.200000000000000E-02  0.261648633577129E-06
       0.300000000000000E-02  0.588717946885723E-06
       0.400000000000000E-02  0.104663089268025E-05
       0.500000000000000E-02  0.163540337962275E-05
       0.600000000000000E-02  0.235505586384973E-05
       0.700000000000000E-02  0.320561335057941E-05
       0.800000000000000E-02  0.418710539607666E-05
       0.900000000000000E-02  0.529956610997589E-05
       0.100000000000000E-01  0.654303415796211E-05
       0.110000000000000E-01  0.791755276481083E-05
       0.120000000000000E-01  0.942316971778692E-05
       0.130000000000000E-01  0.110599373704032E-04
       0.140000000000000E-01  0.128279126465392E-04
       0.150000000000000E-01  0.147271570449204E-04
       0.160000000000000E-01  0.167577366439597E-04
       0.170000000000000E-01  0.189197221069598E-04
       0.180000000000000E-01  0.212131886876799E-04
       0.190000000000000E-01  0.236382162362645E-04
       0.200000000000000E-01  0.261948892055389E-04
       0.210000000000000E-01  0.288832966576681E-04
       0.220000000000000E-01  0.317035322711832E-04
       0.230000000000000E-01  0.346556943483759E-04
       0.240000000000000E-01  0.377398858230606E-04
       0.250000000000000E-01  0.409562142687065E-04
       0.260000000000000E-01  0.443047919069417E-04
       0.270000000000000E-01  0.477857356164281E-04
       0.280000000000000E-01  0.513991669421102E-04
       0.290000000000000E-01  0.551452121048398E-04
       0.300000000000000E-01  0.590240020113764E-04
       0.310000000000000E-01  0.630356722647645E-04
       0.320000000000000E-01  0.671803631750924E-04
       0.330000000000000E-01  0.714582197706298E-04
       0.340000000000000E-01  0.758693918093490E-04
       0.350000000000000E-01  0.804140337908313E-04
       0.360000000000000E-01  0.850923049685574E-04
       0.370000000000000E-01  0.899043693625879E-04
       0.380000000000000E-01  0.948503957726324E-04
       0.390000000000000E-01  0.999305577915101E-04
       0.400000000000000E-01  0.105145033819006E-03
       0.410000000000000E-01  0.110494007076121E-03
       0.420000000000000E-01  0.115977665619720E-03
       0.430000000000000E-01  0.121596202357584E-03
       0.440000000000000E-01  0.127349815063856E-03
       0.450000000000000E-01  0.133238706394905E-03
       0.460000000000000E-01  0.139263083905583E-03
       0.470000000000000E-01  0.145423160065901E-03
       0.480000000000000E-01  0.151719152278115E-03
       0.490000000000000E-01  0.158151282894224E-03
       0.500000000000000E-01  0.164719779233889E-03
       0.510000000000000E-01  0.171424873602772E-03
       0.520000000000000E-01  0.178266803311290E-03
       0.530000000000000E-01  0.185245810693812E-03
       0.540000000000000E-01  0.192362143128264E-03
       0.550000000000000E-01  0.199616053056180E-03
       0.560000000000000E-01  0.207007798003184E-03
       0.570000000000000E-01  0.214537640599907E-03
       0.580000000000000E-01  0.222205848603348E-03
       0.590000000000000E-01  0.230012694918679E-03
       0.600000000000000E-01  0.237958457621497E-03
       0.610000000000000E-01  0.246043419980526E-03
       0.620000000000000E-01  0.254267870480779E-03
       0.630000000000000E-01  0.262632102847169E-03
       0.640000000000000E-01  0.271136416068591E-03
       0.650000000000000E-01  0.279781114422462E-03
       0.660000000000000E-01  0.288566507499739E-03
       0.670000000000000E-01  0.297492910230401E-03
       0.680000000000000E-01  0.306560642909414E-03
       0.690000000000000E-01  0.315770031223178E-03
       0.700000000000000E-01  0.325121406276452E-03
       0.710000000000000E-01  0.334615104619781E-03
       0.720000000000001E-01  0.344251468277405E-03
       0.730000000000001E-01  0.354030844775674E-03
       0.740000000000001E-01  0.363953587171963E-03
       0.750000000000001E-01  0.374020054084093E-03
       0.760000000000001E-01  0.384230609720269E-03
       0.770000000000001E-01  0.394585623909530E-03
       0.780000000000001E-01  0.405085472132724E-03
       0.790000000000001E-01  0.415730535554003E-03
       0.800000000000001E-01  0.426521201052864E-03
       0.810000000000001E-01  0.437457861256711E-03
       0.820000000000001E-01  0.448540914573967E-03
       0.830000000000001E-01  0.459770765227730E-03
       0.840000000000001E-01  0.471147823289991E-03
       0.850000000000001E-01  0.482672504716395E-03
       0.860000000000001E-01  0.494345231381584E-03
       0.870000000000001E-01  0.506166431115084E-03
       0.880000000000001E-01  0.518136537737802E-03
       0.890000000000001E-01  0.530255991099073E-03
       0.900000000000001E-01  0.542525237114313E-03
       0.910000000000001E-01  0.554944727803259E-03
       0.920000000000001E-01  0.567514921328808E-03
       0.930000000000001E-01  0.580236282036469E-03
       0.940000000000001E-01  0.593109280494423E-03
       0.950000000000001E-01  0.606134393534197E-03
       0.960000000000001E-01  0.619312104291977E-03
       0.970000000000001E-01  0.632642902250548E-03
       0.980000000000001E-01  0.646127283281867E-03
       0.990000000000001E-01  0.659765749690296E-03
       0.100000000000000E+00  0.673558810256488E-03
       0.101000000000000E+00  0.687506980281914E-03
       0.102000000000000E+00  0.701610781634098E-03
       0.103000000000000E+00  0.715870742792488E-03
       0.104000000000000E+00  0.730287398895046E-03
       0.105000000000000E+00  0.744861291785506E-03
       0.106000000000000E+00  0.759592970061346E-03
       0.107000000000000E+00  0.774482989122472E-03
       0.108000000000000E+00  0.789531911220599E-03
       0.109000000000000E+00  0.804740305509391E-03
       0.110000000000000E+00  0.820108748095301E-03
       0.111000000000000E+00  0.835637822089177E-03
       0.112000000000000E+00  0.851328117658621E-03
       0.113000000000000E+00  0.867180232081085E-03
       0.114000000000000E+00  0.883194769797771E-03
       0.115000000000000E+00  0.899372342468287E-03
       0.116000000000000E+00  0.915713569026104E-03
       0.117000000000000E+00  0.932219075734809E-03
       0.118000000000000E+00  0.948889496245164E-03
       0.119000000000000E+00  0.965725471652995E-03
       0.120000000000000E+00  0.982727650557908E-03
       0.121000000000000E+00  0.999896689122823E-03
       0.122000000000000E+00  0.101723325113440E-02
       0.123000000000000E+00  0.103473800806429E-02
       0.124000000000000E+00  0.105241163913128E-02
       0.125000000000000E+00  0.107025483136433E-02
       0.126000000000000E+00  0.108826827966646E-02
       0.127000000000000E+00  0.110645268687959E-02
       0.128000000000000E+00  0.112480876385030E-02
       0.129000000000000E+00  0.114333722949649E-02
       0.130000000000000E+00  0.116203881087500E-02
       0.131000000000000E+00  0.118091424325020E-02
       0.132000000000000E+00  0.119996427016349E-02
       0.133000000000000E+00  0.121918964350390E-02
       0.134000000000000E+00  0.123859112357952E-02
       0.135000000000000E+00  0.125816947919012E-02
       0.136000000000000E+00  0.127792548770060E-02
       0.137000000000000E+00  0.129785993511567E-02
       0.138000000000000E+00  0.131797361615543E-02
       0.139000000000000E+00  0.133826733433204E-02
       0.140000000000000E+00  0.135874190202759E-02
       0.141000000000000E+00  0.137939814057286E-02
       0.142000000000000E+00  0.140023688032738E-02
       0.143000000000000E+00  0.142125896076048E-02
       0.144000000000000E+00  0.144246523053355E-02
       0.145000000000000E+00  0.146385654758343E-02
       0.146000000000000E+00  0.148543377920701E-02
       0.147000000000000E+00  0.150719780214690E-02
       0.148000000000000E+00  0.152914950267847E-02
       0.149000000000000E+00  0.155128977669802E-02
       0.150000000000000E+00  0.157361952981215E-02
       0.151000000000000E+00  0.159613967742848E-02
       0.152000000000000E+00  0.161885114484760E-02
       0.153000000000000E+00  0.164175486735629E-02
       0.154000000000000E+00  0.166485179032210E-02
       0.155000000000000E+00  0.168814286928922E-02
       0.156000000000000E+00  0.171162907007573E-02
       0.157000000000000E+00  0.173531136887222E-02
       0.158000000000000E+00  0.175919075234173E-02
       0.159000000000000E+00  0.178326821772123E-02
       0.160000000000000E+00  0.180754477292442E-02
       0.161000000000000E+00  0.183202143664602E-02
       0.162000000000000E+00  0.185669923846754E-02
       0.163000000000000E+00  0.188157921896454E-02
       0.164000000000000E+00  0.190666242981543E-02
       0.165000000000000E+00  0.193194993391173E-02
       0.166000000000000E+00  0.195744280547004E-02
       0.167000000000000E+00  0.198314213014542E-02
       0.168000000000000E+00  0.200904900514652E-02
       0.169000000000000E+00  0.203516453935231E-02
       0.170000000000000E+00  0.206148985343044E-02
       0.171000000000000E+00  0.208802607995727E-02
       0.172000000000000E+00  0.211477436353971E-02
       0.173000000000000E+00  0.214173586093870E-02
       0.174000000000000E+00  0.216891174119449E-02
       0.175000000000000E+00  0.219630318575372E-02
       0.176000000000000E+00  0.222391138859829E-02
       0.177000000000000E+00  0.225173755637616E-02
       0.178000000000000E+00  0.227978290853387E-02
       0.179000000000000E+00  0.230804867745116E-02
       0.180000000000000E+00  0.233653610857737E-02
       0.181000000000000E+00  0.236524646056991E-02
       0.182000000000000E+00  0.239418100543461E-02
       0.183000000000000E+00  0.242334102866829E-02
       0.184000000000000E+00  0.245272782940316E-02
       0.185000000000000E+00  0.248234272055352E-02
       0.186000000000000E+00  0.251218702896442E-02
       0.187000000000000E+00  0.254226209556265E-02
       0.188000000000000E+00  0.257256927550973E-02
       0.189000000000000E+00  0.260310993835736E-02
       0.190000000000000E+00  0.263388546820492E-02
       0.191000000000000E+00  0.266489726385941E-02
       0.192000000000000E+00  0.269614673899771E-02
       0.193000000000000E+00  0.272763532233118E-02
       0.194000000000000E+00  0.275936445777272E-02
       0.195000000000000E+00  0.279133560460627E-02
       0.196000000000000E+00  0.282355023765882E-02
       0.197000000000000E+00  0.285600984747493E-02
       0.198000000000000E+00  0.288871594049392E-02
       0.199000000000000E+00  0.292167003922954E-02
       0.200000000000000E+00  0.295487368245246E-02
       0.201000000000000E+00  0.298832842537536E-02
       0.202000000000000E+00  0.302203583984088E-02
       0.203000000000000E+00  0.305599751451225E-02
       0.204000000000000E+00  0.309021505506692E-02
       0.205000000000000E+00  0.312469008439296E-02
       0.206000000000000E+00  0.315942424278847E-02
       0.207000000000000E+00  0.319441918816403E-02
       0.208000000000000E+00  0.322967659624808E-02
       0.209000000000000E+00  0.326519816079556E-02
       0.210000000000000E+00  0.330098559379956E-02
       0.211000000000000E+00  0.333704062570626E-02
       0.212000000000000E+00  0.337336500563318E-02
       0.213000000000000E+00  0.340996050159056E-02
       0.214000000000000E+00  0.344682890070640E-02
       0.215000000000000E+00  0.348397200945467E-02
       0.216000000000000E+00  0.352139165388722E-02
       0.217000000000000E+00  0.355908967986908E-02
       0.218000000000000E+00  0.359706795331756E-02
       0.219000000000000E+00  0.363532836044487E-02
       0.220000000000000E+00  0.367387280800457E-02
       0.221000000000000E+00  0.371270322354183E-02
       0.222000000000000E+00  0.375182155564759E-02
       0.223000000000000E+00  0.379122977421661E-02
       0.224000000000000E+00  0.383092987070960E-02
       0.225000000000000E+00  0.387092385841940E-02
       0.226000000000000E+00  0.391121377274140E-02
       0.227000000000000E+00  0.395180167144809E-02
       0.228000000000000E+00  0.399268963496806E-02
       0.229000000000000E+00  0.403387976666923E-02
       0.230000000000000E+00  0.407537419314675E-02
       0.231000000000000E+00  0.411717506451531E-02
       0.232000000000000E+00  0.415928455470612E-02
       0.233000000000000E+00  0.420170486176868E-02
       0.234000000000000E+00  0.424443820817725E-02
       0.235000000000000E+00  0.428748684114237E-02
       0.236000000000000E+00  0.433085303292717E-02
       0.237000000000000E+00  0.437453908116897E-02
       0.238000000000000E+00  0.441854730920587E-02
       0.239000000000000E+00  0.446288006640880E-02
       0.240000000000000E+00  0.450753972851873E-02
       0.241000000000000E+00  0.455252869798951E-02
       0.242000000000000E+00  0.459784940433625E-02
       0.243000000000000E+00  0.464350430448930E-02
       0.244000000000000E+00  0.468949588315411E-02
       0.245000000000000E+00  0.473582665317692E-02
       0.246000000000000E+00  0.478249915591647E-02
       0.247000000000000E+00  0.482951596162188E-02
       0.248000000000000E+00  0.487687966981663E-02
       0.249000000000000E+00  0.492459290968906E-02
       0.250000000000000E+00  0.497265834048925E-02
       0.251000000000000E+00  0.502107865193247E-02
       0.252000000000000E+00  0.506985656460946E-02
       0.253000000000000E+00  0.511899483040348E-02
       0.254000000000000E+00  0.516849623291438E-02
       0.255000000000000E+00  0.521836358788983E-02
       0.256000000000000E+00  0.526859974366366E-02
       0.257000000000000E+00  0.531920758160193E-02
       0.258000000000000E+00  0.537019001655613E-02
       0.259000000000000E+00  0.542154999732445E-02
       0.260000000000000E+00  0.547329050712066E-02
       0.261000000000000E+00  0.552541456405114E-02
       0.262000000000000E+00  0.557792522159996E-02
       0.263000000000000E+00  0.563082556912241E-02
       0.264000000000000E+00  0.568411873234692E-02
       0.265000000000000E+00  0.573780787388570E-02
       0.266000000000000E+00  0.579189619375418E-02
       0.267000000000000E+00  0.584638692989956E-02
       0.268000000000000E+00  0.590128335873837E-02
       0.269000000000000E+00  0.595658879570364E-02
       0.270000000000000E+00  0.601230659580146E-02
       0.271000000000000E+00  0.606844015417742E-02
       0.272000000000000E+00  0.612499290669299E-02
       0.273000000000000E+00  0.618196833051201E-02
       0.274000000000000E+00  0.623936994469768E-02
       0.275000000000000E+00  0.629720131082006E-02
       0.276000000000000E+00  0.635546603357440E-02
       0.277000000000000E+00  0.641416776141048E-02
       0.278000000000000E+00  0.647331018717336E-02
       0.279000000000000E+00  0.653289704875542E-02
       0.280000000000000E+00  0.659293212976030E-02
       0.281000000000000E+00  0.665341926017883E-02
       0.282000000000000E+00  0.671436231707703E-02
       0.283000000000000E+00  0.677576522529687E-02
       0.284000000000000E+00  0.683763195816963E-02
       0.285000000000000E+00  0.689996653824226E-02
       0.286000000000000E+00  0.696277303801725E-02
       0.287000000000000E+00  0.702605558070587E-02
       0.288000000000000E+00  0.708981834099550E-02
       0.289000000000000E+00  0.715406554583100E-02
       0.290000000000000E+00  0.721880147521062E-02
       0.291000000000000E+00  0.728403046299687E-02
       0.292000000000000E+00  0.734975689774221E-02
       0.293000000000000E+00  0.741598522353054E-02
       0.294000000000000E+00  0.748271994083425E-02
       0.295000000000000E+00  0.754996560738749E-02
       0.296000000000000E+00  0.761772683907600E-02
       0.297000000000000E+00  0.768600831084373E-02
       0.298000000000000E+00  0.775481475761667E-02
       0.299000000000000E+00  0.782415097524449E-02
       0.300000000000000E+00  0.789402182145986E-02
       0.301000000000000E+00  0.796443221685651E-02
       0.302000000000000E+00  0.803538714588604E-02
       0.303000000000000E+00  0.810689165787370E-02
       0.304000000000000E+00  0.817895086805433E-02
       0.305000000000000E+00  0.825156995862802E-02
       0.306000000000000E+00  0.832475417983659E-02
       0.307000000000000E+00  0.839850885106102E-02
       0.308000000000000E+00  0.847283936194045E-02
       0.309000000000000E+00  0.854775117351328E-02
       0.310000000000000E+00  0.862324981938060E-02
       0.311000000000000E+00  0.869934090689297E-02
       0.312000000000000E+00  0.877603011836049E-02
       0.313000000000000E+00  0.885332321228727E-02
       0.314000000000000E+00  0.893122602463042E-02
       0.315000000000000E+00  0.900974447008441E-02
       0.316000000000000E+00  0.908888454339121E-02
       0.317000000000000E+00  0.916865232067706E-02
       0.318000000000000E+00  0.924905396081628E-02
       0.319000000000000E+00  0.933009570682264E-02
       0.320000000000000E+00  0.941178388726943E-02
       0.321000000000000E+00  0.949412491773855E-02
       0.322000000000000E+00  0.957712530229910E-02
       0.323000000000000E+00  0.966079163501692E-02
       0.324000000000000E+00  0.974513060149496E-02
       0.325000000000000E+00  0.983014898044581E-02
       0.326000000000000E+00  0.991585364529710E-02
       0.327000000000000E+00  0.100022515658302E-01
       0.328000000000000E+00  0.100893498098535E-01
       0.329000000000000E+00  0.101771555449107E-01
       0.330000000000000E+00  0.102656760400257E-01
       0.331000000000000E+00  0.103549186674837E-01
       0.332000000000000E+00  0.104448909046507E-01
       0.333000000000000E+00  0.105356003358318E-01
       0.334000000000000E+00  0.106270546541694E-01
       0.335000000000000E+00  0.107192616635814E-01
       0.336000000000000E+00  0.108122292807427E-01
       0.337000000000000E+00  0.109059655371081E-01
       0.338000000000000E+00  0.110004785809799E-01
       0.339000000000000E+00  0.110957766796208E-01
       0.340000000000000E+00  0.111918682214124E-01
       0.341000000000000E+00  0.112887617180612E-01
       0.342000000000000E+00  0.113864658068540E-01
       0.343000000000000E+00  0.114849892529623E-01
       0.344000000000000E+00  0.115843409517979E-01
       0.345000000000000E+00  0.116845299314218E-01
       0.346000000000000E+00  0.117855653550059E-01
       0.347000000000000E+00  0.118874565233511E-01
       0.348000000000000E+00  0.119902128774608E-01
       0.349000000000000E+00  0.120938440011738E-01
       0.350000000000000E+00  0.121983596238561E-01
       0.351000000000000E+00  0.123037696231549E-01
       0.352000000000000E+00  0.124100840278145E-01
       0.353000000000000E+00  0.125173130205575E-01
       0.354000000000000E+00  0.126254669410324E-01
       0.355000000000000E+00  0.127345562888294E-01
       0.356000000000000E+00  0.128445917265653E-01
       0.357000000000000E+00  0.129555840830417E-01
       0.358000000000000E+00  0.130675443564760E-01
       0.359000000000000E+00  0.131804837178090E-01
       0.360000000000000E+00  0.132944135140894E-01
       0.361000000000000E+00  0.134093452719397E-01
       0.362000000000000E+00  0.135252907011036E-01
       0.363000000000000E+00  0.136422616980779E-01
       0.364000000000000E+00  0.137602703498320E-01
       0.365000000000000E+00  0.138793289376162E-01
       0.366000000000000E+00  0.139994499408621E-01
       0.367000000000000E+00  0.141206460411773E-01
       0.368000000000000E+00  0.142429301264375E-01
       0.369000000000000E+00  0.143663152949786E-01
       0.370000000000000E+00  0.144908148598906E-01
       0.371000000000000E+00  0.146164423534189E-01
       0.372000000000000E+00  0.147432115314724E-01
       0.373000000000000E+00  0.148711363782448E-01
       0.374000000000000E+00  0.150002311109506E-01
       0.375000000000000E+00  0.151305101846792E-01
       0.376000000000000E+00  0.152619882973715E-01
       0.377000000000000E+00  0.153946803949213E-01
       0.378000000000000E+00  0.155286016764063E-01
       0.379000000000000E+00  0.156637675994522E-01
       0.380000000000000E+00  0.158001938857330E-01
       0.381000000000000E+00  0.159378965266130E-01
       0.382000000000000E+00  0.160768917889336E-01
