#          \hbar \omega(Ry)    Oscillator strength
       0.000000000000000E+00  -.000000000000000E+00
       0.100000000000000E-02  0.654115902296799E-07
       0.200000000000000E-02  0.261648633227698E-06
       0.300000000000000E-02  0.588717946099488E-06
       0.400000000000000E-02  0.104663089128246E-05
       0.500000000000000E-02  0.163540337743862E-05
       0.600000000000000E-02  0.235505586070444E-05
       0.700000000000000E-02  0.320561334629808E-05
       0.800000000000000E-02  0.418710539048437E-05
       0.900000000000000E-02  0.529956610289764E-05
       0.100000000000000E-01  0.654303414922284E-05
       0.110000000000000E-01  0.791755275423539E-05
       0.120000000000000E-01  0.942316970520005E-05
       0.130000000000000E-01  0.110599373556296E-04
       0.140000000000000E-01  0.128279126294033E-04
       0.150000000000000E-01  0.147271570252468E-04
       0.160000000000000E-01  0.167577366215725E-04
       0.170000000000000E-01  0.189197220816834E-04
       0.180000000000000E-01  0.212131886593381E-04
       0.190000000000000E-01  0.236382162046813E-04
       0.200000000000000E-01  0.261948891705379E-04
       0.210000000000000E-01  0.288832966190729E-04
       0.220000000000000E-01  0.317035322288171E-04
       0.230000000000000E-01  0.346556943020621E-04
       0.240000000000000E-01  0.377398857726219E-04
       0.250000000000000E-01  0.409562142139659E-04
       0.260000000000000E-01  0.443047918477217E-04
       0.270000000000000E-01  0.477857355525508E-04
       0.280000000000000E-01  0.513991668733977E-04
       0.290000000000000E-01  0.551452120311141E-04
       0.300000000000000E-01  0.590240019324589E-04
       0.310000000000000E-01  0.630356721804767E-04
       0.320000000000000E-01  0.671803630852552E-04
       0.330000000000000E-01  0.714582196750639E-04
       0.340000000000000E-01  0.758693917078750E-04
       0.350000000000000E-01  0.804140336832695E-04
       0.360000000000000E-01  0.850923048547274E-04
       0.370000000000000E-01  0.899043692423093E-04
       0.380000000000000E-01  0.948503956457244E-04
       0.390000000000000E-01  0.999305576577916E-04
       0.400000000000000E-01  0.105145033678296E-03
       0.410000000000000E-01  0.110494006928237E-03
       0.420000000000000E-01  0.115977665464480E-03
       0.430000000000000E-01  0.121596202194805E-03
       0.440000000000000E-01  0.127349814893356E-03
       0.450000000000000E-01  0.133238706216500E-03
       0.460000000000000E-01  0.139263083719090E-03
       0.470000000000000E-01  0.145423159871135E-03
       0.480000000000000E-01  0.151719152074891E-03
       0.490000000000000E-01  0.158151282682358E-03
       0.500000000000000E-01  0.164719779013196E-03
       0.510000000000000E-01  0.171424873373064E-03
       0.520000000000000E-01  0.178266803072383E-03
       0.530000000000000E-01  0.185245810445517E-03
       0.540000000000000E-01  0.192362142870395E-03
       0.550000000000000E-01  0.199616052788549E-03
       0.560000000000000E-01  0.207007797725603E-03
       0.570000000000000E-01  0.214537640312186E-03
       0.580000000000000E-01  0.222205848305299E-03
       0.590000000000000E-01  0.230012694610111E-03
       0.600000000000000E-01  0.237958457302220E-03
       0.610000000000000E-01  0.246043419650350E-03
       0.620000000000000E-01  0.254267870139511E-03
       0.630000000000000E-01  0.262632102494617E-03
       0.640000000000000E-01  0.271136415704563E-03
       0.650000000000000E-01  0.279781114046765E-03
       0.660000000000000E-01  0.288566507112178E-03
       0.670000000000000E-01  0.297492909830782E-03
       0.680000000000000E-01  0.306560642497542E-03
       0.690000000000000E-01  0.315770030798856E-03
       0.700000000000000E-01  0.325121405839485E-03
       0.710000000000000E-01  0.334615104169971E-03
       0.720000000000001E-01  0.344251467814554E-03
       0.730000000000001E-01  0.354030844299584E-03
       0.740000000000001E-01  0.363953586682435E-03
       0.750000000000001E-01  0.374020053580927E-03
       0.760000000000001E-01  0.384230609203265E-03
       0.770000000000001E-01  0.394585623378486E-03
       0.780000000000001E-01  0.405085471587437E-03
       0.790000000000001E-01  0.415730534994272E-03
       0.800000000000001E-01  0.426521200478485E-03
       0.810000000000001E-01  0.437457860667479E-03
       0.820000000000001E-01  0.448540913969675E-03
       0.830000000000001E-01  0.459770764608175E-03
       0.840000000000001E-01  0.471147822654965E-03
       0.850000000000001E-01  0.482672504065691E-03
       0.860000000000001E-01  0.494345230714992E-03
       0.870000000000001E-01  0.506166430432397E-03
       0.880000000000001E-01  0.518136537038809E-03
       0.890000000000001E-01  0.530255990383563E-03
       0.900000000000001E-01  0.542525236382074E-03
       0.910000000000001E-01  0.554944727054077E-03
       0.920000000000001E-01  0.567514920562471E-03
       0.930000000000001E-01  0.580236281252762E-03
       0.940000000000001E-01  0.593109279693129E-03
       0.950000000000001E-01  0.606134392715100E-03
       0.960000000000001E-01  0.619312103454861E-03
       0.970000000000001E-01  0.632642901395192E-03
       0.980000000000001E-01  0.646127282408053E-03
       0.990000000000001E-01  0.659765748797806E-03
       0.100000000000000E+00  0.673558809345096E-03
       0.101000000000000E+00  0.687506979351400E-03
       0.102000000000000E+00  0.701610780684237E-03
       0.103000000000000E+00  0.715870741823057E-03
       0.104000000000000E+00  0.730287397905817E-03
       0.105000000000000E+00  0.744861290776254E-03
       0.106000000000000E+00  0.759592969031844E-03
       0.107000000000000E+00  0.774482988072487E-03
       0.108000000000000E+00  0.789531910149904E-03
       0.109000000000000E+00  0.804740304417755E-03
       0.110000000000000E+00  0.820108746982490E-03
       0.111000000000000E+00  0.835637820954959E-03
       0.112000000000000E+00  0.851328116502759E-03
       0.113000000000000E+00  0.867180230903343E-03
       0.114000000000000E+00  0.883194768597912E-03
       0.115000000000000E+00  0.899372341246072E-03
       0.116000000000000E+00  0.915713567781295E-03
       0.117000000000000E+00  0.932219074467162E-03
       0.118000000000000E+00  0.948889494954441E-03
       0.119000000000000E+00  0.965725470338951E-03
       0.120000000000000E+00  0.982727649220295E-03
       0.121000000000000E+00  0.999896687761397E-03
       0.122000000000000E+00  0.101723324974891E-02
       0.123000000000000E+00  0.103473800665449E-02
       0.124000000000000E+00  0.105241163769693E-02
       0.125000000000000E+00  0.107025482990516E-02
       0.126000000000000E+00  0.108826827818222E-02
       0.127000000000000E+00  0.110645268537003E-02
       0.128000000000000E+00  0.112480876231517E-02
       0.129000000000000E+00  0.114333722793552E-02
       0.130000000000000E+00  0.116203880928794E-02
       0.131000000000000E+00  0.118091424163678E-02
       0.132000000000000E+00  0.119996426852346E-02
       0.133000000000000E+00  0.121918964183698E-02
       0.134000000000000E+00  0.123859112188546E-02
       0.135000000000000E+00  0.125816947746864E-02
       0.136000000000000E+00  0.127792548595144E-02
       0.137000000000000E+00  0.129785993333856E-02
       0.138000000000000E+00  0.131797361435009E-02
       0.139000000000000E+00  0.133826733249821E-02
       0.140000000000000E+00  0.135874190016498E-02
       0.141000000000000E+00  0.137939813868121E-02
       0.142000000000000E+00  0.140023687840640E-02
       0.143000000000000E+00  0.142125895880988E-02
       0.144000000000000E+00  0.144246522855306E-02
       0.145000000000000E+00  0.146385654557278E-02
       0.146000000000000E+00  0.148543377716588E-02
       0.147000000000000E+00  0.150719780007503E-02
       0.148000000000000E+00  0.152914950057557E-02
       0.149000000000000E+00  0.155128977456378E-02
       0.150000000000000E+00  0.157361952764629E-02
       0.151000000000000E+00  0.159613967523070E-02
       0.152000000000000E+00  0.161885114261761E-02
       0.153000000000000E+00  0.164175486509378E-02
       0.154000000000000E+00  0.166485178802677E-02
       0.155000000000000E+00  0.168814286696077E-02
       0.156000000000000E+00  0.171162906771386E-02
       0.157000000000000E+00  0.173531136647661E-02
       0.158000000000000E+00  0.175919074991208E-02
       0.159000000000000E+00  0.178326821525723E-02
       0.160000000000000E+00  0.180754477042575E-02
       0.161000000000000E+00  0.183202143411237E-02
       0.162000000000000E+00  0.185669923589859E-02
       0.163000000000000E+00  0.188157921635997E-02
       0.164000000000000E+00  0.190666242717491E-02
       0.165000000000000E+00  0.193194993123495E-02
       0.166000000000000E+00  0.195744280275666E-02
       0.167000000000000E+00  0.198314212739511E-02
       0.168000000000000E+00  0.200904900235896E-02
       0.169000000000000E+00  0.203516453652716E-02
       0.170000000000000E+00  0.206148985056735E-02
       0.171000000000000E+00  0.208802607705591E-02
       0.172000000000000E+00  0.211477436059975E-02
       0.173000000000000E+00  0.214173585795978E-02
       0.174000000000000E+00  0.216891173817627E-02
       0.175000000000000E+00  0.219630318269585E-02
       0.176000000000000E+00  0.222391138550042E-02
       0.177000000000000E+00  0.225173755323793E-02
       0.178000000000000E+00  0.227978290535493E-02
       0.179000000000000E+00  0.230804867423114E-02
       0.180000000000000E+00  0.233653610531592E-02
       0.181000000000000E+00  0.236524645726665E-02
       0.182000000000000E+00  0.239418100208919E-02
       0.183000000000000E+00  0.242334102528033E-02
       0.184000000000000E+00  0.245272782597229E-02
       0.185000000000000E+00  0.248234271707935E-02
       0.186000000000000E+00  0.251218702544658E-02
       0.187000000000000E+00  0.254226209200075E-02
       0.188000000000000E+00  0.257256927190340E-02
       0.189000000000000E+00  0.260310993470620E-02
       0.190000000000000E+00  0.263388546450854E-02
       0.191000000000000E+00  0.266489726011741E-02
       0.192000000000000E+00  0.269614673520971E-02
       0.193000000000000E+00  0.272763531849676E-02
       0.194000000000000E+00  0.275936445389148E-02
       0.195000000000000E+00  0.279133560067781E-02
       0.196000000000000E+00  0.282355023368271E-02
       0.197000000000000E+00  0.285600984345078E-02
       0.198000000000000E+00  0.288871593642130E-02
       0.199000000000000E+00  0.292167003510802E-02
       0.200000000000000E+00  0.295487367828163E-02
       0.201000000000000E+00  0.298832842115478E-02
       0.202000000000000E+00  0.302203583557013E-02
       0.203000000000000E+00  0.305599751019089E-02
       0.204000000000000E+00  0.309021505069451E-02
       0.205000000000000E+00  0.312469007996906E-02
       0.206000000000000E+00  0.315942423831263E-02
       0.207000000000000E+00  0.319441918363579E-02
       0.208000000000000E+00  0.322967659166700E-02
       0.209000000000000E+00  0.326519815616118E-02
       0.210000000000000E+00  0.330098558911141E-02
       0.211000000000000E+00  0.333704062096389E-02
       0.212000000000000E+00  0.337336500083610E-02
       0.213000000000000E+00  0.340996049673831E-02
       0.214000000000000E+00  0.344682889579850E-02
       0.215000000000000E+00  0.348397200449063E-02
       0.216000000000000E+00  0.352139164886655E-02
       0.217000000000000E+00  0.355908967479131E-02
       0.218000000000000E+00  0.359706794818219E-02
       0.219000000000000E+00  0.363532835525138E-02
       0.220000000000000E+00  0.367387280275248E-02
       0.221000000000000E+00  0.371270321823062E-02
       0.222000000000000E+00  0.375182155027674E-02
       0.223000000000000E+00  0.379122976878562E-02
       0.224000000000000E+00  0.383092986521792E-02
       0.225000000000000E+00  0.387092385286653E-02
       0.226000000000000E+00  0.391121376712679E-02
       0.227000000000000E+00  0.395180166577122E-02
       0.228000000000000E+00  0.399268962922837E-02
       0.229000000000000E+00  0.403387976086619E-02
       0.230000000000000E+00  0.407537418727980E-02
       0.231000000000000E+00  0.411717505858389E-02
       0.232000000000000E+00  0.415928454870967E-02
       0.233000000000000E+00  0.420170485570664E-02
       0.234000000000000E+00  0.424443820204905E-02
       0.235000000000000E+00  0.428748683494742E-02
       0.236000000000000E+00  0.433085302666488E-02
       0.237000000000000E+00  0.437453907483877E-02
       0.238000000000000E+00  0.441854730280715E-02
       0.239000000000000E+00  0.446288005994097E-02
       0.240000000000000E+00  0.450753972198118E-02
       0.241000000000000E+00  0.455252869138162E-02
       0.242000000000000E+00  0.459784939765741E-02
       0.243000000000000E+00  0.464350429773888E-02
       0.244000000000000E+00  0.468949587633149E-02
       0.245000000000000E+00  0.473582664628146E-02
       0.246000000000000E+00  0.478249914894753E-02
       0.247000000000000E+00  0.482951595457881E-02
       0.248000000000000E+00  0.487687966269877E-02
       0.249000000000000E+00  0.492459290249576E-02
       0.250000000000000E+00  0.497265833321982E-02
       0.251000000000000E+00  0.502107864458625E-02
       0.252000000000000E+00  0.506985655718578E-02
       0.253000000000000E+00  0.511899482290165E-02
       0.254000000000000E+00  0.516849622533369E-02
       0.255000000000000E+00  0.521836358022957E-02
       0.256000000000000E+00  0.526859973592315E-02
       0.257000000000000E+00  0.531920757378042E-02
       0.258000000000000E+00  0.537019000865291E-02
       0.259000000000000E+00  0.542154998933879E-02
       0.260000000000000E+00  0.547329049905183E-02
       0.261000000000000E+00  0.552541455589838E-02
       0.262000000000000E+00  0.557792521336251E-02
       0.263000000000000E+00  0.563082556079954E-02
       0.264000000000000E+00  0.568411872393783E-02
       0.265000000000000E+00  0.573780786538962E-02
       0.266000000000000E+00  0.579189618517034E-02
       0.267000000000000E+00  0.584638692122715E-02
       0.268000000000000E+00  0.590128334997659E-02
       0.269000000000000E+00  0.595658878685167E-02
       0.270000000000000E+00  0.601230658685848E-02
       0.271000000000000E+00  0.606844014514262E-02
       0.272000000000000E+00  0.612499289756551E-02
       0.273000000000000E+00  0.618196832129101E-02
       0.274000000000000E+00  0.623936993538231E-02
       0.275000000000000E+00  0.629720130140946E-02
       0.276000000000000E+00  0.635546602406767E-02
       0.277000000000000E+00  0.641416775180677E-02
       0.278000000000000E+00  0.647331017747176E-02
       0.279000000000000E+00  0.653289703895500E-02
       0.280000000000000E+00  0.659293211986019E-02
       0.281000000000000E+00  0.665341925017807E-02
       0.282000000000000E+00  0.671436230697472E-02
       0.283000000000000E+00  0.677576521509206E-02
       0.284000000000000E+00  0.683763194786135E-02
       0.285000000000000E+00  0.689996652782956E-02
       0.286000000000000E+00  0.696277302749913E-02
       0.287000000000000E+00  0.702605557008136E-02
       0.288000000000000E+00  0.708981833026360E-02
       0.289000000000000E+00  0.715406553499068E-02
       0.290000000000000E+00  0.721880146426089E-02
       0.291000000000000E+00  0.728403045193666E-02
       0.292000000000000E+00  0.734975688657051E-02
       0.293000000000000E+00  0.741598521224629E-02
       0.294000000000000E+00  0.748271992943637E-02
       0.295000000000000E+00  0.754996559587491E-02
       0.296000000000000E+00  0.761772682744760E-02
       0.297000000000000E+00  0.768600829909842E-02
       0.298000000000000E+00  0.775481474575334E-02
       0.299000000000000E+00  0.782415096326196E-02
       0.300000000000000E+00  0.789402180935702E-02
       0.301000000000000E+00  0.796443220463221E-02
       0.302000000000000E+00  0.803538713353907E-02
       0.303000000000000E+00  0.810689164540292E-02
       0.304000000000000E+00  0.817895085545848E-02
       0.305000000000000E+00  0.825156994590592E-02
       0.306000000000000E+00  0.832475416698699E-02
       0.307000000000000E+00  0.839850883808270E-02
       0.308000000000000E+00  0.847283934883214E-02
       0.309000000000000E+00  0.854775116027369E-02
       0.310000000000000E+00  0.862324980600842E-02
       0.311000000000000E+00  0.869934089338693E-02
       0.312000000000000E+00  0.877603010471924E-02
       0.313000000000000E+00  0.885332319850948E-02
       0.314000000000000E+00  0.893122601071472E-02
       0.315000000000000E+00  0.900974445602941E-02
       0.316000000000000E+00  0.908888452919555E-02
       0.317000000000000E+00  0.916865230633933E-02
       0.318000000000000E+00  0.924905394633504E-02
       0.319000000000000E+00  0.933009569219643E-02
       0.320000000000000E+00  0.941178387249682E-02
       0.321000000000000E+00  0.949412490281802E-02
       0.322000000000000E+00  0.957712528722918E-02
       0.323000000000000E+00  0.966079161979608E-02
       0.324000000000000E+00  0.974513058612162E-02
       0.325000000000000E+00  0.983014896491846E-02
       0.326000000000000E+00  0.991585362961413E-02
       0.327000000000000E+00  0.100022515499900E-01
       0.328000000000000E+00  0.100893497938544E-01
       0.329000000000000E+00  0.101771555287512E-01
       0.330000000000000E+00  0.102656760237041E-01
       0.331000000000000E+00  0.103549186509982E-01
       0.332000000000000E+00  0.104448908879996E-01
       0.333000000000000E+00  0.105356003190135E-01
       0.334000000000000E+00  0.106270546371820E-01
       0.335000000000000E+00  0.107192616464233E-01
       0.336000000000000E+00  0.108122292634119E-01
       0.337000000000000E+00  0.109059655196028E-01
       0.338000000000000E+00  0.110004785632984E-01
       0.339000000000000E+00  0.110957766617611E-01
       0.340000000000000E+00  0.111918682033725E-01
       0.341000000000000E+00  0.112887616998394E-01
       0.342000000000000E+00  0.113864657884482E-01
       0.343000000000000E+00  0.114849892343705E-01
       0.344000000000000E+00  0.115843409330182E-01
       0.345000000000000E+00  0.116845299124520E-01
       0.346000000000000E+00  0.117855653358441E-01
       0.347000000000000E+00  0.118874565039951E-01
       0.348000000000000E+00  0.119902128579085E-01
       0.349000000000000E+00  0.120938439814230E-01
       0.350000000000000E+00  0.121983596039047E-01
       0.351000000000000E+00  0.123037696030006E-01
       0.352000000000000E+00  0.124100840074550E-01
       0.353000000000000E+00  0.125173129999906E-01
       0.354000000000000E+00  0.126254669202558E-01
       0.355000000000000E+00  0.127345562678406E-01
       0.356000000000000E+00  0.128445917053621E-01
       0.357000000000000E+00  0.129555840616215E-01
       0.358000000000000E+00  0.130675443348366E-01
       0.359000000000000E+00  0.131804836959477E-01
       0.360000000000000E+00  0.132944134920037E-01
       0.361000000000000E+00  0.134093452496271E-01
       0.362000000000000E+00  0.135252906785614E-01
       0.363000000000000E+00  0.136422616753034E-01
       0.364000000000000E+00  0.137602703268227E-01
       0.365000000000000E+00  0.138793289143693E-01
       0.366000000000000E+00  0.139994499173748E-01
       0.367000000000000E+00  0.141206460174467E-01
       0.368000000000000E+00  0.142429301024610E-01
       0.369000000000000E+00  0.143663152707530E-01
       0.370000000000000E+00  0.144908148354132E-01
       0.371000000000000E+00  0.146164423286866E-01
       0.372000000000000E+00  0.147432115064822E-01
       0.373000000000000E+00  0.148711363529936E-01
       0.374000000000000E+00  0.150002310854352E-01
       0.375000000000000E+00  0.151305101588966E-01
       0.376000000000000E+00  0.152619882713183E-01
       0.377000000000000E+00  0.153946803685942E-01
       0.378000000000000E+00  0.155286016498021E-01
       0.379000000000000E+00  0.156637675725674E-01
       0.380000000000000E+00  0.158001938585642E-01
       0.381000000000000E+00  0.159378964991567E-01
       0.382000000000000E+00  0.160768917611862E-01
