#          \hbar \omega(Ry)    Oscillator strength
       0.000000000000000E+00  0.000000000000000E+00
       0.100000000000000E-02  0.733267139443793E-07
       0.200000000000000E-02  0.293309519334378E-06
       0.300000000000000E-02  0.659956407057561E-06
       0.400000000000000E-02  0.117328069598317E-05
       0.500000000000000E-02  0.183330103404721E-05
       0.600000000000000E-02  0.264004139977178E-05
       0.700000000000000E-02  0.359353110421886E-05
       0.800000000000000E-02  0.469380479337898E-05
       0.900000000000000E-02  0.594090245099492E-05
       0.100000000000000E-01  0.733486940182108E-05
       0.110000000000000E-01  0.887575631531880E-05
       0.120000000000000E-01  0.105636192097885E-04
       0.130000000000000E-01  0.123985194569388E-04
       0.140000000000000E-01  0.143805237868940E-04
       0.150000000000000E-01  0.165097042936396E-04
       0.160000000000000E-01  0.187861384409082E-04
       0.170000000000000E-01  0.212099090685050E-04
       0.180000000000000E-01  0.237811043990753E-04
       0.190000000000000E-01  0.264998180453142E-04
       0.200000000000000E-01  0.293661490176195E-04
       0.210000000000000E-01  0.323802017321900E-04
       0.220000000000000E-01  0.355420860195687E-04
       0.230000000000000E-01  0.388519171336342E-04
       0.240000000000000E-01  0.423098157610402E-04
       0.250000000000000E-01  0.459159080311045E-04
       0.260000000000000E-01  0.496703255261511E-04
       0.270000000000000E-01  0.535732052923033E-04
       0.280000000000000E-01  0.576246898507329E-04
       0.290000000000000E-01  0.618249272093661E-04
       0.300000000000000E-01  0.661740708750465E-04
       0.310000000000000E-01  0.706722798661587E-04
       0.320000000000000E-01  0.753197187257151E-04
       0.330000000000000E-01  0.801165575349046E-04
       0.340000000000000E-01  0.850629719271084E-04
       0.350000000000000E-01  0.901591431023868E-04
       0.360000000000000E-01  0.954052578424295E-04
       0.370000000000000E-01  0.100801508525987E-03
       0.380000000000000E-01  0.106348093144774E-03
       0.390000000000000E-01  0.112045215319844E-03
       0.400000000000000E-01  0.117893084318456E-03
       0.410000000000000E-01  0.123891915071418E-03
       0.420000000000000E-01  0.130041928190910E-03
       0.430000000000000E-01  0.136343349988806E-03
       0.440000000000000E-01  0.142796412495483E-03
       0.450000000000000E-01  0.149401353479118E-03
       0.460000000000000E-01  0.156158416465493E-03
       0.470000000000000E-01  0.163067850758291E-03
       0.480000000000000E-01  0.170129911459898E-03
       0.490000000000000E-01  0.177344859492716E-03
       0.500000000000000E-01  0.184712961620975E-03
       0.510000000000000E-01  0.192234490473075E-03
       0.520000000000000E-01  0.199909724564423E-03
       0.530000000000000E-01  0.207738948320813E-03
       0.540000000000000E-01  0.215722452102312E-03
       0.550000000000000E-01  0.223860532227686E-03
       0.560000000000000E-01  0.232153490999348E-03
       0.570000000000000E-01  0.240601636728851E-03
       0.580000000000000E-01  0.249205283762911E-03
       0.590000000000000E-01  0.257964752509984E-03
       0.600000000000000E-01  0.266880369467380E-03
       0.610000000000000E-01  0.275952467248941E-03
       0.620000000000000E-01  0.285181384613263E-03
       0.630000000000000E-01  0.294567466492492E-03
       0.640000000000000E-01  0.304111064021674E-03
       0.650000000000000E-01  0.313812534568687E-03
       0.660000000000000E-01  0.323672241764738E-03
       0.670000000000000E-01  0.333690555535445E-03
       0.680000000000000E-01  0.343867852132507E-03
       0.690000000000000E-01  0.354204514165959E-03
       0.700000000000000E-01  0.364700930637025E-03
       0.710000000000000E-01  0.375357496971572E-03
       0.720000000000001E-01  0.386174615054170E-03
       0.730000000000001E-01  0.397152693262768E-03
       0.740000000000001E-01  0.408292146503973E-03
       0.750000000000001E-01  0.419593396248975E-03
       0.760000000000001E-01  0.431056870570083E-03
       0.770000000000001E-01  0.442683004177903E-03
       0.780000000000001E-01  0.454472238459156E-03
       0.790000000000001E-01  0.466425021515146E-03
       0.800000000000001E-01  0.478541808200878E-03
       0.810000000000001E-01  0.490823060164841E-03
       0.820000000000001E-01  0.503269245889451E-03
       0.830000000000001E-01  0.515880840732179E-03
       0.840000000000001E-01  0.528658326967345E-03
       0.850000000000001E-01  0.541602193828614E-03
       0.860000000000001E-01  0.554712937552177E-03
       0.870000000000001E-01  0.567991061420632E-03
       0.880000000000001E-01  0.581437075807596E-03
       0.890000000000001E-01  0.595051498222992E-03
       0.900000000000001E-01  0.608834853359110E-03
       0.910000000000001E-01  0.622787673137360E-03
       0.920000000000001E-01  0.636910496755789E-03
       0.930000000000001E-01  0.651203870737336E-03
       0.940000000000001E-01  0.665668348978847E-03
       0.950000000000001E-01  0.680304492800856E-03
       0.960000000000001E-01  0.695112870998136E-03
       0.970000000000001E-01  0.710094059891037E-03
       0.980000000000001E-01  0.725248643377608E-03
       0.990000000000001E-01  0.740577212986529E-03
       0.100000000000000E+00  0.756080367930850E-03
       0.101000000000000E+00  0.771758715162529E-03
       0.102000000000000E+00  0.787612869427841E-03
       0.103000000000000E+00  0.803643453323584E-03
       0.104000000000000E+00  0.819851097354145E-03
       0.105000000000000E+00  0.836236439989441E-03
       0.106000000000000E+00  0.852800127723701E-03
       0.107000000000000E+00  0.869542815135152E-03
       0.108000000000000E+00  0.886465164946571E-03
       0.109000000000000E+00  0.903567848086764E-03
       0.110000000000000E+00  0.920851543752920E-03
       0.111000000000000E+00  0.938316939473924E-03
       0.112000000000000E+00  0.955964731174580E-03
       0.113000000000000E+00  0.973795623240795E-03
       0.114000000000000E+00  0.991810328585693E-03
       0.115000000000000E+00  0.101000956871674E-02
       0.116000000000000E+00  0.102839407380381E-02
       0.117000000000000E+00  0.104696458274827E-02
       0.118000000000000E+00  0.106572184325304E-02
       0.119000000000000E+00  0.108466661189374E-02
       0.120000000000000E+00  0.110379965419079E-02
       0.121000000000000E+00  0.112312174468259E-02
       0.122000000000000E+00  0.114263366699976E-02
       0.123000000000000E+00  0.116233621394048E-02
       0.124000000000000E+00  0.118223018754685E-02
       0.125000000000000E+00  0.120231639918240E-02
       0.126000000000000E+00  0.122259566961075E-02
       0.127000000000000E+00  0.124306882907527E-02
       0.128000000000000E+00  0.126373671738005E-02
       0.129000000000000E+00  0.128460018397195E-02
       0.130000000000000E+00  0.130566008802376E-02
       0.131000000000000E+00  0.132691729851872E-02
       0.132000000000000E+00  0.134837269433607E-02
       0.133000000000000E+00  0.137002716433798E-02
       0.134000000000000E+00  0.139188160745759E-02
       0.135000000000000E+00  0.141393693278841E-02
       0.136000000000000E+00  0.143619405967495E-02
       0.137000000000000E+00  0.145865391780463E-02
       0.138000000000000E+00  0.148131744730105E-02
       0.139000000000000E+00  0.150418559881856E-02
       0.140000000000000E+00  0.152725933363818E-02
       0.141000000000000E+00  0.155053962376489E-02
       0.142000000000000E+00  0.157402745202631E-02
       0.143000000000000E+00  0.159772381217281E-02
       0.144000000000000E+00  0.162162970897900E-02
       0.145000000000000E+00  0.164574615834671E-02
       0.146000000000000E+00  0.167007418740941E-02
       0.147000000000000E+00  0.169461483463816E-02
       0.148000000000000E+00  0.171936914994901E-02
       0.149000000000000E+00  0.174433819481198E-02
       0.150000000000000E+00  0.176952304236161E-02
       0.151000000000000E+00  0.179492477750902E-02
       0.152000000000000E+00  0.182054449705566E-02
       0.153000000000000E+00  0.184638330980859E-02
       0.154000000000000E+00  0.187244233669750E-02
       0.155000000000000E+00  0.189872271089334E-02
       0.156000000000000E+00  0.192522557792867E-02
       0.157000000000000E+00  0.195195209581977E-02
       0.158000000000000E+00  0.197890343519039E-02
       0.159000000000000E+00  0.200608077939743E-02
       0.160000000000000E+00  0.203348532465831E-02
       0.161000000000000E+00  0.206111828018018E-02
       0.162000000000000E+00  0.208898086829103E-02
       0.163000000000000E+00  0.211707432457271E-02
       0.164000000000000E+00  0.214539989799574E-02
       0.165000000000000E+00  0.217395885105619E-02
       0.166000000000000E+00  0.220275245991450E-02
       0.167000000000000E+00  0.223178201453627E-02
       0.168000000000000E+00  0.226104881883510E-02
       0.169000000000000E+00  0.229055419081757E-02
       0.170000000000000E+00  0.232029946273013E-02
       0.171000000000000E+00  0.235028598120841E-02
       0.172000000000000E+00  0.238051510742839E-02
       0.173000000000000E+00  0.241098821725999E-02
       0.174000000000000E+00  0.244170670142277E-02
       0.175000000000000E+00  0.247267196564400E-02
       0.176000000000000E+00  0.250388543081891E-02
       0.177000000000000E+00  0.253534853317340E-02
       0.178000000000000E+00  0.256706272442909E-02
       0.179000000000000E+00  0.259902947197071E-02
       0.180000000000000E+00  0.263125025901609E-02
       0.181000000000000E+00  0.266372658478852E-02
       0.182000000000000E+00  0.269645996469171E-02
       0.183000000000000E+00  0.272945193048731E-02
       0.184000000000000E+00  0.276270403047505E-02
       0.185000000000000E+00  0.279621782967554E-02
       0.186000000000000E+00  0.282999491001578E-02
       0.187000000000000E+00  0.286403687051742E-02
       0.188000000000000E+00  0.289834532748776E-02
       0.189000000000000E+00  0.293292191471372E-02
       0.190000000000000E+00  0.296776828365856E-02
       0.191000000000000E+00  0.300288610366159E-02
       0.192000000000000E+00  0.303827706214090E-02
       0.193000000000000E+00  0.307394286479905E-02
       0.194000000000000E+00  0.310988523583191E-02
       0.195000000000000E+00  0.314610591814060E-02
       0.196000000000000E+00  0.318260667354661E-02
       0.197000000000000E+00  0.321938928301020E-02
       0.198000000000000E+00  0.325645554685208E-02
       0.199000000000000E+00  0.329380728497841E-02
       0.200000000000000E+00  0.333144633710928E-02
       0.201000000000000E+00  0.336937456301059E-02
       0.202000000000000E+00  0.340759384272948E-02
       0.203000000000000E+00  0.344610607683339E-02
       0.204000000000000E+00  0.348491318665268E-02
       0.205000000000000E+00  0.352401711452708E-02
       0.206000000000000E+00  0.356341982405580E-02
       0.207000000000000E+00  0.360312330035157E-02
       0.208000000000000E+00  0.364312955029853E-02
       0.209000000000000E+00  0.368344060281416E-02
       0.210000000000000E+00  0.372405850911516E-02
       0.211000000000000E+00  0.376498534298762E-02
       0.212000000000000E+00  0.380622320106112E-02
       0.213000000000000E+00  0.384777420308737E-02
       0.214000000000000E+00  0.388964049222301E-02
       0.215000000000000E+00  0.393182423531691E-02
       0.216000000000000E+00  0.397432762320189E-02
       0.217000000000000E+00  0.401715287099114E-02
       0.218000000000000E+00  0.406030221837915E-02
       0.219000000000000E+00  0.410377792994752E-02
       0.220000000000000E+00  0.414758229547546E-02
       0.221000000000000E+00  0.419171763025537E-02
       0.222000000000000E+00  0.423618627541325E-02
       0.223000000000000E+00  0.428099059823433E-02
       0.224000000000000E+00  0.432613299249381E-02
       0.225000000000000E+00  0.437161587879295E-02
       0.226000000000000E+00  0.441744170490048E-02
       0.227000000000000E+00  0.446361294609951E-02
       0.228000000000000E+00  0.451013210554002E-02
       0.229000000000000E+00  0.455700171459703E-02
       0.230000000000000E+00  0.460422433323460E-02
       0.231000000000000E+00  0.465180255037555E-02
       0.232000000000000E+00  0.469973898427748E-02
       0.233000000000000E+00  0.474803628291459E-02
       0.234000000000000E+00  0.479669712436601E-02
       0.235000000000000E+00  0.484572421721022E-02
       0.236000000000000E+00  0.489512030092619E-02
       0.237000000000000E+00  0.494488814630086E-02
       0.238000000000000E+00  0.499503055584357E-02
       0.239000000000000E+00  0.504555036420712E-02
       0.240000000000000E+00  0.509645043861601E-02
       0.241000000000000E+00  0.514773367930152E-02
       0.242000000000000E+00  0.519940301994441E-02
       0.243000000000000E+00  0.525146142812454E-02
       0.244000000000000E+00  0.530391190577841E-02
       0.245000000000000E+00  0.535675748966422E-02
       0.246000000000000E+00  0.541000125183460E-02
       0.247000000000000E+00  0.546364630011763E-02
       0.248000000000000E+00  0.551769577860566E-02
       0.249000000000000E+00  0.557215286815262E-02
       0.250000000000000E+00  0.562702078687971E-02
       0.251000000000000E+00  0.568230279068972E-02
       0.252000000000000E+00  0.573800217379013E-02
       0.253000000000000E+00  0.579412226922507E-02
       0.254000000000000E+00  0.585066644941663E-02
       0.255000000000000E+00  0.590763812671531E-02
       0.256000000000000E+00  0.596504075395995E-02
       0.257000000000000E+00  0.602287782504753E-02
       0.258000000000000E+00  0.608115287551271E-02
       0.259000000000000E+00  0.613986948311750E-02
       0.260000000000000E+00  0.619903126845118E-02
       0.261000000000000E+00  0.625864189554085E-02
       0.262000000000000E+00  0.631870507247252E-02
       0.263000000000000E+00  0.637922455202326E-02
       0.264000000000000E+00  0.644020413230445E-02
       0.265000000000000E+00  0.650164765741634E-02
       0.266000000000000E+00  0.656355901811451E-02
       0.267000000000000E+00  0.662594215248774E-02
       0.268000000000000E+00  0.668880104664846E-02
       0.269000000000000E+00  0.675213973543512E-02
       0.270000000000000E+00  0.681596230312749E-02
       0.271000000000000E+00  0.688027288417479E-02
       0.272000000000000E+00  0.694507566393668E-02
       0.273000000000000E+00  0.701037487943809E-02
       0.274000000000000E+00  0.707617482013747E-02
       0.275000000000000E+00  0.714247982870912E-02
       0.276000000000000E+00  0.720929430183977E-02
       0.277000000000000E+00  0.727662269103987E-02
       0.278000000000000E+00  0.734446950346960E-02
       0.279000000000000E+00  0.741283930278037E-02
       0.280000000000000E+00  0.748173670997148E-02
       0.281000000000000E+00  0.755116640426314E-02
       0.282000000000000E+00  0.762113312398534E-02
       0.283000000000000E+00  0.769164166748344E-02
       0.284000000000000E+00  0.776269689404076E-02
       0.285000000000000E+00  0.783430372481842E-02
       0.286000000000000E+00  0.790646714381284E-02
       0.287000000000000E+00  0.797919219883137E-02
       0.288000000000000E+00  0.805248400248641E-02
       0.289000000000000E+00  0.812634773320833E-02
       0.290000000000000E+00  0.820078863627786E-02
       0.291000000000000E+00  0.827581202487799E-02
       0.292000000000000E+00  0.835142328116623E-02
       0.293000000000000E+00  0.842762785736736E-02
       0.294000000000000E+00  0.850443127688738E-02
       0.295000000000000E+00  0.858183913544903E-02
       0.296000000000000E+00  0.865985710224910E-02
       0.297000000000000E+00  0.873849092113876E-02
       0.298000000000000E+00  0.881774641182640E-02
       0.299000000000000E+00  0.889762947110465E-02
       0.300000000000000E+00  0.897814607410081E-02
       0.301000000000000E+00  0.905930227555280E-02
       0.302000000000000E+00  0.914110421110959E-02
       0.303000000000000E+00  0.922355809865803E-02
       0.304000000000000E+00  0.930667023967566E-02
       0.305000000000000E+00  0.939044702061097E-02
       0.306000000000000E+00  0.947489491429101E-02
       0.307000000000000E+00  0.956002048135762E-02
       0.308000000000000E+00  0.964583037173227E-02
       0.309000000000000E+00  0.973233132611111E-02
       0.310000000000000E+00  0.981953017748977E-02
       0.311000000000000E+00  0.990743385271982E-02
       0.312000000000000E+00  0.999604937409667E-02
       0.313000000000000E+00  0.100853838609803E-01
       0.314000000000000E+00  0.101754445314492E-01
       0.315000000000000E+00  0.102662387039887E-01
       0.316000000000000E+00  0.103577737992142E-01
       0.317000000000000E+00  0.104500573416300E-01
       0.318000000000000E+00  0.105430969614255E-01
       0.319000000000000E+00  0.106369003963081E-01
       0.320000000000000E+00  0.107314754933758E-01
       0.321000000000000E+00  0.108268302110280E-01
       0.322000000000000E+00  0.109229726209180E-01
       0.323000000000000E+00  0.110199109099459E-01
       0.324000000000000E+00  0.111176533822948E-01
       0.325000000000000E+00  0.112162084615099E-01
       0.326000000000000E+00  0.113155846926229E-01
       0.327000000000000E+00  0.114157907443217E-01
       0.328000000000000E+00  0.115168354111669E-01
       0.329000000000000E+00  0.116187276158567E-01
       0.330000000000000E+00  0.117214764115412E-01
       0.331000000000000E+00  0.118250909841870E-01
       0.332000000000000E+00  0.119295806549935E-01
       0.333000000000000E+00  0.120349548828629E-01
       0.334000000000000E+00  0.121412232669243E-01
       0.335000000000000E+00  0.122483955491139E-01
       0.336000000000000E+00  0.123564816168128E-01
       0.337000000000000E+00  0.124654915055433E-01
       0.338000000000000E+00  0.125754354017260E-01
       0.339000000000000E+00  0.126863236454987E-01
       0.340000000000000E+00  0.127981667335989E-01
       0.341000000000000E+00  0.129109753223119E-01
       0.342000000000000E+00  0.130247602304858E-01
       0.343000000000000E+00  0.131395324426149E-01
       0.344000000000000E+00  0.132553031119949E-01
       0.345000000000000E+00  0.133720835639490E-01
       0.346000000000000E+00  0.134898852991303E-01
       0.347000000000000E+00  0.136087199968992E-01
       0.348000000000000E+00  0.137285995187804E-01
       0.349000000000000E+00  0.138495359120001E-01
       0.350000000000000E+00  0.139715414131061E-01
       0.351000000000000E+00  0.140946284516736E-01
       0.352000000000000E+00  0.142188096540976E-01
       0.353000000000000E+00  0.143440978474768E-01
       0.354000000000000E+00  0.144705060635877E-01
       0.355000000000000E+00  0.145980475429558E-01
       0.356000000000000E+00  0.147267357390234E-01
       0.357000000000000E+00  0.148565843224177E-01
       0.358000000000000E+00  0.149876071853228E-01
       0.359000000000000E+00  0.151198184459570E-01
       0.360000000000000E+00  0.152532324531598E-01
       0.361000000000000E+00  0.153878637910910E-01
       0.362000000000000E+00  0.155237272840451E-01
       0.363000000000000E+00  0.156608380013846E-01
       0.364000000000000E+00  0.157992112625951E-01
       0.365000000000000E+00  0.159388626424668E-01
       0.366000000000000E+00  0.160798079764046E-01
       0.367000000000000E+00  0.162220633658715E-01
       0.368000000000000E+00  0.163656451839698E-01
       0.369000000000000E+00  0.165105700811615E-01
       0.370000000000000E+00  0.166568549911360E-01
       0.371000000000000E+00  0.168045171368260E-01
       0.372000000000000E+00  0.169535740365769E-01
       0.373000000000000E+00  0.171040435104763E-01
       0.374000000000000E+00  0.172559436868457E-01
       0.375000000000000E+00  0.174092930088998E-01
       0.376000000000000E+00  0.175641102415806E-01
       0.377000000000000E+00  0.177204144785688E-01
       0.378000000000000E+00  0.178782251494793E-01
       0.379000000000000E+00  0.180375620272470E-01
       0.380000000000000E+00  0.181984452357071E-01
       0.381000000000000E+00  0.183608952573771E-01
       0.382000000000000E+00  0.185249329414469E-01
