# Final state angular momentum:   1
# Broadening parameter (in eV):    0.800
# Absorbing atom type (xiabs):   1
# Energy (eV)   sigma
  -10.00000000    0.00008649
   -9.88988989    0.00008774
   -9.77977978    0.00008902
   -9.66966967    0.00009033
   -9.55955956    0.00009168
   -9.44944945    0.00009306
   -9.33933934    0.00009447
   -9.22922923    0.00009593
   -9.11911912    0.00009742
   -9.00900901    0.00009895
   -8.89889890    0.00010052
   -8.78878879    0.00010213
   -8.67867868    0.00010379
   -8.56856857    0.00010550
   -8.45845846    0.00010725
   -8.34834835    0.00010906
   -8.23823824    0.00011092
   -8.12812813    0.00011283
   -8.01801802    0.00011480
   -7.90790791    0.00011683
   -7.79779780    0.00011892
   -7.68768769    0.00012108
   -7.57757758    0.00012330
   -7.46746747    0.00012560
   -7.35735736    0.00012797
   -7.24724725    0.00013042
   -7.13713714    0.00013296
   -7.02702703    0.00013558
   -6.91691692    0.00013829
   -6.80680681    0.00014109
   -6.69669670    0.00014400
   -6.58658659    0.00014701
   -6.47647648    0.00015013
   -6.36636637    0.00015337
   -6.25625626    0.00015674
   -6.14614615    0.00016023
   -6.03603604    0.00016387
   -5.92592593    0.00016765
   -5.81581582    0.00017158
   -5.70570571    0.00017569
   -5.59559560    0.00017996
   -5.48548549    0.00018443
   -5.37537538    0.00018909
   -5.26526527    0.00019396
   -5.15515516    0.00019906
   -5.04504505    0.00020440
   -4.93493493    0.00021000
   -4.82482482    0.00021588
   -4.71471471    0.00022205
   -4.60460460    0.00022854
   -4.49449449    0.00023538
   -4.38438438    0.00024259
   -4.27427427    0.00025019
   -4.16416416    0.00025823
   -4.05405405    0.00026674
   -3.94394394    0.00027576
   -3.83383383    0.00028533
   -3.72372372    0.00029551
   -3.61361361    0.00030635
   -3.50350350    0.00031791
   -3.39339339    0.00033027
   -3.28328328    0.00034351
   -3.17317317    0.00035771
   -3.06306306    0.00037298
   -2.95295295    0.00038944
   -2.84284284    0.00040722
   -2.73273273    0.00042648
   -2.62262262    0.00044739
   -2.51251251    0.00047016
   -2.40240240    0.00049503
   -2.29229229    0.00052227
   -2.18218218    0.00055222
   -2.07207207    0.00058526
   -1.96196196    0.00062184
   -1.85185185    0.00066249
   -1.74174174    0.00070785
   -1.63163163    0.00075870
   -1.52152152    0.00081593
   -1.41141141    0.00088065
   -1.30130130    0.00095417
   -1.19119119    0.00103804
   -1.08108108    0.00113413
   -0.97097097    0.00124457
   -0.86086086    0.00137182
   -0.75075075    0.00151852
   -0.64064064    0.00168728
   -0.53053053    0.00188035
   -0.42042042    0.00209902
   -0.31031031    0.00234314
   -0.20020020    0.00261089
   -0.09009009    0.00289871
    0.02002002    0.00320294
    0.13013013    0.00353126
    0.24024024    0.00387162
    0.35035035    0.00422157
    0.46046046    0.00456600
    0.57057057    0.00488037
    0.68068068    0.00513539
    0.79079079    0.00530486
    0.90090090    0.00537140
    1.01101101    0.00532759
    1.12112112    0.00517497
    1.23123123    0.00492440
    1.34134134    0.00459702
    1.45145145    0.00422213
    1.56156156    0.00383123
    1.67167167    0.00345135
    1.78178178    0.00310097
    1.89189189    0.00278980
    2.00200200    0.00252069
    2.11211211    0.00229224
    2.22222222    0.00210090
    2.33233233    0.00194237
    2.44244244    0.00181239
    2.55255255    0.00170711
    2.66266266    0.00162327
    2.77277277    0.00155818
    2.88288288    0.00150971
    2.99299299    0.00147622
    3.10310310    0.00145648
    3.21321321    0.00144960
    3.32332332    0.00145497
    3.43343343    0.00147214
    3.54354354    0.00150081
    3.65365365    0.00154077
    3.76376376    0.00159206
    3.87387387    0.00165520
    3.98398398    0.00173143
    4.09409409    0.00182286
    4.20420420    0.00193222
    4.31431431    0.00206257
    4.42442442    0.00221676
    4.53453453    0.00239688
    4.64464464    0.00260349
    4.75475475    0.00283462
    4.86486486    0.00308481
    4.97497497    0.00334510
    5.08508509    0.00360470
    5.19519520    0.00385477
    5.30530531    0.00409219
    5.41541542    0.00432026
    5.52552553    0.00454545
    5.63563564    0.00477272
    5.74574575    0.00500349
    5.85585586    0.00523715
    5.96596597    0.00547344
    6.07607608    0.00571327
    6.18618619    0.00595757
    6.29629630    0.00620574
    6.40640641    0.00645440
    6.51651652    0.00669684
    6.62662663    0.00692294
    6.73673674    0.00711896
    6.84684685    0.00726753
    6.95695696    0.00735060
    7.06706707    0.00735643
    7.17717718    0.00728703
    7.28728729    0.00716045
    7.39739740    0.00700560
    7.50750751    0.00685256
    7.61761762    0.00672358
    7.72772773    0.00662844
    7.83783784    0.00656430
    7.94794795    0.00651820
    8.05805806    0.00647088
    8.16816817    0.00640172
    8.27827828    0.00629426
    8.38838839    0.00614125
    8.49849850    0.00594749
    8.60860861    0.00572899
    8.71871872    0.00550845
    8.82882883    0.00530858
    8.93893894    0.00514657
    9.04904905    0.00503155
    9.15915916    0.00496497
    9.26926927    0.00494263
    9.37937938    0.00495734
    9.48948949    0.00500138
    9.59959960    0.00506790
    9.70970971    0.00515043
    9.81981982    0.00524146
    9.92992993    0.00533227
   10.04004004    0.00541533
   10.15015015    0.00548781
   10.26026026    0.00555298
   10.37037037    0.00561841
   10.48048048    0.00569201
   10.59059059    0.00577780
   10.70070070    0.00587296
   10.81081081    0.00596635
   10.92092092    0.00603921
   11.03103103    0.00606916
   11.14114114    0.00603800
   11.25125125    0.00594041
   11.36136136    0.00578737
   11.47147147    0.00560108
   11.58158158    0.00540523
   11.69169169    0.00521722
   11.80180180    0.00504557
   11.91191191    0.00489133
   12.02202202    0.00475066
   12.13213213    0.00461717
   12.24224224    0.00448420
   12.35235235    0.00434726
   12.46246246    0.00420582
   12.57257257    0.00406309
   12.68268268    0.00392403
   12.79279279    0.00379292
   12.90290290    0.00367219
   13.01301301    0.00356302
   13.12312312    0.00346649
   13.23323323    0.00338383
   13.34334334    0.00331555
   13.45345345    0.00326088
   13.56356356    0.00321842
   13.67367367    0.00318763
   13.78378378    0.00316971
   13.89389389    0.00316710
   14.00400400    0.00318177
   14.11411411    0.00321357
   14.22422422    0.00325945
   14.33433433    0.00331394
   14.44444444    0.00337068
   14.55455455    0.00342464
   14.66466466    0.00347423
   14.77477477    0.00352227
   14.88488488    0.00357541
   14.99499499    0.00364188
   15.10510511    0.00372865
   15.21521522    0.00383871
   15.32532533    0.00396888
   15.43543544    0.00410855
   15.54554555    0.00424017
   15.65565566    0.00434294
   15.76576577    0.00439960
   15.87587588    0.00440296
   15.98598599    0.00435797
   16.09609610    0.00427761
   16.20620621    0.00417588
   16.31631632    0.00406234
   16.42642643    0.00394092
   16.53653654    0.00381216
   16.64664665    0.00367677
   16.75675676    0.00353811
   16.86686687    0.00340221
   16.97697698    0.00327611
   17.08708709    0.00316564
   17.19719720    0.00307397
   17.30730731    0.00300128
   17.41741742    0.00294519
   17.52752753    0.00290141
   17.63763764    0.00286456
   17.74774775    0.00282939
   17.85785786    0.00279230
   17.96796797    0.00275257
   18.07807808    0.00271254
   18.18818819    0.00267649
   18.29829830    0.00264899
   18.40840841    0.00263341
   18.51851852    0.00263122
   18.62862863    0.00264220
   18.73873874    0.00266508
   18.84884885    0.00269802
   18.95895896    0.00273835
   19.06906907    0.00278146
   19.17917918    0.00281987
   19.28928929    0.00284406
   19.39939940    0.00284535
   19.50950951    0.00281977
   19.61961962    0.00277022
   19.72972973    0.00270536
   19.83983984    0.00263659
   19.94994995    0.00257486
   20.06006006    0.00252869
   20.17017017    0.00250352
   20.28028028    0.00250168
   20.39039039    0.00252287
   20.50050050    0.00256473
   20.61061061    0.00262347
   20.72072072    0.00269444
   20.83083083    0.00277249
   20.94094094    0.00285213
   21.05105105    0.00292773
   21.16116116    0.00299398
   21.27127127    0.00304654
   21.38138138    0.00308253
   21.49149149    0.00310054
   21.60160160    0.00310022
   21.71171171    0.00308172
   21.82182182    0.00304547
   21.93193193    0.00299251
   22.04204204    0.00292474
   22.15215215    0.00284480
   22.26226226    0.00275618
   22.37237237    0.00266374
   22.48248248    0.00257397
   22.59259259    0.00249442
   22.70270270    0.00243239
   22.81281281    0.00239366
   22.92292292    0.00238171
   23.03303303    0.00239750
   23.14314314    0.00243951
   23.25325325    0.00250370
   23.36336336    0.00258362
   23.47347347    0.00267089
   23.58358358    0.00275643
   23.69369369    0.00283190
   23.80380380    0.00289075
   23.91391391    0.00292845
   24.02402402    0.00294250
   24.13413413    0.00293298
   24.24424424    0.00290330
   24.35435435    0.00285989
   24.46446446    0.00281041
   24.57457457    0.00276147
   24.68468468    0.00271726
   24.79479479    0.00267957
   24.90490490    0.00264846
   25.01501502    0.00262304
   25.12512513    0.00260188
   25.23523524    0.00258292
   25.34534535    0.00256304
   25.45545546    0.00253793
   25.56556557    0.00250302
   25.67567568    0.00245535
   25.78578579    0.00239516
   25.89589590    0.00232619
   26.00600601    0.00225420
   26.11611612    0.00218495
   26.22622623    0.00212266
   26.33633634    0.00206945
   26.44644645    0.00202564
   26.55655656    0.00199049
   26.66666667    0.00196295
   26.77677678    0.00194194
   26.88688689    0.00192619
   26.99699700    0.00191377
   27.10710711    0.00190204
   27.21721722    0.00188852
   27.32732733    0.00187200
   27.43743744    0.00185314
   27.54754755    0.00183411
   27.65765766    0.00181746
   27.76776777    0.00180510
   27.87787788    0.00179779
   27.98798799    0.00179513
   28.09809810    0.00179578
   28.20820821    0.00179779
   28.31831832    0.00179904
   28.42842843    0.00179792
   28.53853854    0.00179402
   28.64864865    0.00178835
   28.75875876    0.00178278
   28.86886887    0.00177928
   28.97897898    0.00177923
   29.08908909    0.00178307
   29.19919920    0.00179036
   29.30930931    0.00179988
   29.41941942    0.00180997
   29.52952953    0.00181883
   29.63963964    0.00182474
   29.74974975    0.00182627
   29.85985986    0.00182254
   29.96996997    0.00181361
   30.08008008    0.00180064
   30.19019019    0.00178556
   30.30030030    0.00177042
   30.41041041    0.00175653
   30.52052052    0.00174406
   30.63063063    0.00173210
   30.74074074    0.00171945
   30.85085085    0.00170557
   30.96096096    0.00169118
   31.07107107    0.00167825
   31.18118118    0.00166940
   31.29129129    0.00166713
   31.40140140    0.00167309
   31.51151151    0.00168758
   31.62162162    0.00170923
   31.73173173    0.00173497
   31.84184184    0.00176042
   31.95195195    0.00178068
   32.06206206    0.00179156
   32.17217217    0.00179063
   32.28228228    0.00177785
   32.39239239    0.00175537
   32.50250250    0.00172674
   32.61261261    0.00169584
   32.72272272    0.00166583
   32.83283283    0.00163831
   32.94294294    0.00161301
   33.05305305    0.00158810
   33.16316316    0.00156117
   33.27327327    0.00153045
   33.38338338    0.00149562
   33.49349349    0.00145786
   33.60360360    0.00141923
   33.71371371    0.00138181
   33.82382382    0.00134697
   33.93393393    0.00131492
   34.04404404    0.00128462
   34.15415415    0.00125428
   34.26426426    0.00122215
   34.37437437    0.00118749
   34.48448448    0.00115099
   34.59459459    0.00111453
   34.70470470    0.00108046
   34.81481481    0.00105074
   34.92492492    0.00102634
   35.03503504    0.00100706
   35.14514515    0.00099176
   35.25525526    0.00097889
   35.36536537    0.00096702
   35.47547548    0.00095527
   35.58558559    0.00094322
   35.69569570    0.00093057
   35.80580581    0.00091671
   35.91591592    0.00090065
   36.02602603    0.00088137
   36.13613614    0.00085836
   36.24624625    0.00083199
   36.35635636    0.00080344
   36.46646647    0.00077434
   36.57657658    0.00074629
   36.68668669    0.00072060
   36.79679680    0.00069807
   36.90690691    0.00067899
   37.01701702    0.00066324
   37.12712713    0.00065034
   37.23723724    0.00063959
   37.34734735    0.00063016
   37.45745746    0.00062122
   37.56756757    0.00061208
   37.67767768    0.00060242
   37.78778779    0.00059234
   37.89789790    0.00058247
   38.00800801    0.00057373
   38.11811812    0.00056717
   38.22822823    0.00056363
   38.33833834    0.00056362
   38.44844845    0.00056721
   38.55855856    0.00057400
   38.66866867    0.00058319
   38.77877878    0.00059365
   38.88888889    0.00060407
   38.99899900    0.00061332
   39.10910911    0.00062065
   39.21921922    0.00062598
   39.32932933    0.00062971
   39.43943944    0.00063252
   39.54954955    0.00063499
   39.65965966    0.00063732
   39.76976977    0.00063939
   39.87987988    0.00064078
   39.98998999    0.00064105
   40.10010010    0.00063996
   40.21021021    0.00063768
   40.32032032    0.00063487
   40.43043043    0.00063247
   40.54054054    0.00063142
   40.65065065    0.00063230
   40.76076076    0.00063523
   40.87087087    0.00063981
   40.98098098    0.00064537
   41.09109109    0.00065118
   41.20120120    0.00065669
   41.31131131    0.00066157
   41.42142142    0.00066564
   41.53153153    0.00066868
   41.64164164    0.00067037
   41.75175175    0.00067033
   41.86186186    0.00066831
   41.97197197    0.00066438
   42.08208208    0.00065898
   42.19219219    0.00065273
   42.30230230    0.00064615
   42.41241241    0.00063941
   42.52252252    0.00063224
   42.63263263    0.00062407
   42.74274274    0.00061436
   42.85285285    0.00060279
   42.96296296    0.00058944
   43.07307307    0.00057480
   43.18318318    0.00055966
   43.29329329    0.00054495
   43.40340340    0.00053153
   43.51351351    0.00052008
   43.62362362    0.00051101
   43.73373373    0.00050449
   43.84384384    0.00050041
   43.95395395    0.00049840
   44.06406406    0.00049786
   44.17417417    0.00049793
   44.28428428    0.00049762
   44.39439439    0.00049601
   44.50450450    0.00049245
   44.61461461    0.00048672
   44.72472472    0.00047912
   44.83483483    0.00047027
   44.94494494    0.00046091
   45.05505506    0.00045165
   45.16516517    0.00044287
   45.27527528    0.00043465
   45.38538539    0.00042692
   45.49549550    0.00041953
   45.60560561    0.00041234
   45.71571572    0.00040519
   45.82582583    0.00039795
   45.93593594    0.00039046
   46.04604605    0.00038265
   46.15615616    0.00037457
   46.26626627    0.00036637
   46.37637638    0.00035829
   46.48648649    0.00035051
   46.59659660    0.00034316
   46.70670671    0.00033627
   46.81681682    0.00032988
   46.92692693    0.00032403
   47.03703704    0.00031875
   47.14714715    0.00031404
   47.25725726    0.00030978
   47.36736737    0.00030567
   47.47747748    0.00030124
   47.58758759    0.00029596
   47.69769770    0.00028946
   47.80780781    0.00028169
   47.91791792    0.00027301
   48.02802803    0.00026408
   48.13813814    0.00025561
   48.24824825    0.00024821
   48.35835836    0.00024226
   48.46846847    0.00023793
   48.57857858    0.00023519
   48.68868869    0.00023386
   48.79879880    0.00023362
   48.90890891    0.00023406
   49.01901902    0.00023474
   49.12912913    0.00023524
   49.23923924    0.00023528
   49.34934935    0.00023480
   49.45945946    0.00023393
   49.56956957    0.00023291
   49.67967968    0.00023199
   49.78978979    0.00023128
   49.89989990    0.00023078
   50.01001001    0.00023033
   50.12012012    0.00022970
   50.23023023    0.00022869
   50.34034034    0.00022721
   50.45045045    0.00022536
   50.56056056    0.00022328
   50.67067067    0.00022112
   50.78078078    0.00021891
   50.89089089    0.00021660
   51.00100100    0.00021408
   51.11111111    0.00021131
   51.22122122    0.00020830
   51.33133133    0.00020511
   51.44144144    0.00020181
   51.55155155    0.00019836
   51.66166166    0.00019466
   51.77177177    0.00019055
   51.88188188    0.00018595
   51.99199199    0.00018089
   52.10210210    0.00017557
   52.21221221    0.00017029
   52.32232232    0.00016539
   52.43243243    0.00016114
   52.54254254    0.00015775
   52.65265265    0.00015529
   52.76276276    0.00015376
   52.87287287    0.00015306
   52.98298298    0.00015299
   53.09309309    0.00015335
   53.20320320    0.00015391
   53.31331331    0.00015452
   53.42342342    0.00015511
   53.53353353    0.00015566
   53.64364364    0.00015618
   53.75375375    0.00015665
   53.86386386    0.00015701
   53.97397397    0.00015718
   54.08408408    0.00015705
   54.19419419    0.00015657
   54.30430430    0.00015574
   54.41441441    0.00015462
   54.52452452    0.00015335
   54.63463463    0.00015206
   54.74474474    0.00015081
   54.85485485    0.00014961
   54.96496496    0.00014835
   55.07507508    0.00014690
   55.18518519    0.00014510
   55.29529530    0.00014286
   55.40540541    0.00014017
   55.51551552    0.00013706
   55.62562563    0.00013363
   55.73573574    0.00013002
   55.84584585    0.00012637
   55.95595596    0.00012281
   56.06606607    0.00011942
   56.17617618    0.00011626
   56.28628629    0.00011329
   56.39639640    0.00011046
   56.50650651    0.00010768
   56.61661662    0.00010490
   56.72672673    0.00010207
   56.83683684    0.00009918
   56.94694695    0.00009628
   57.05705706    0.00009340
   57.16716717    0.00009059
   57.27727728    0.00008789
   57.38738739    0.00008532
   57.49749750    0.00008286
   57.60760761    0.00008050
   57.71771772    0.00007823
   57.82782783    0.00007604
   57.93793794    0.00007393
   58.04804805    0.00007191
   58.15815816    0.00006999
   58.26826827    0.00006819
   58.37837838    0.00006651
   58.48848849    0.00006498
   58.59859860    0.00006359
   58.70870871    0.00006234
   58.81881882    0.00006120
   58.92892893    0.00006015
   59.03903904    0.00005916
   59.14914915    0.00005820
   59.25925926    0.00005725
   59.36936937    0.00005631
   59.47947948    0.00005538
   59.58958959    0.00005446
   59.69969970    0.00005357
   59.80980981    0.00005270
   59.91991992    0.00005186
   60.03003003    0.00005103
   60.14014014    0.00005021
   60.25025025    0.00004941
   60.36036036    0.00004861
   60.47047047    0.00004783
   60.58058058    0.00004705
   60.69069069    0.00004629
   60.80080080    0.00004554
   60.91091091    0.00004480
   61.02102102    0.00004408
   61.13113113    0.00004337
   61.24124124    0.00004269
   61.35135135    0.00004202
   61.46146146    0.00004138
   61.57157157    0.00004076
   61.68168168    0.00004016
   61.79179179    0.00003960
   61.90190190    0.00003906
   62.01201201    0.00003856
   62.12212212    0.00003809
   62.23223223    0.00003765
   62.34234234    0.00003723
   62.45245245    0.00003685
   62.56256256    0.00003649
   62.67267267    0.00003616
   62.78278278    0.00003585
   62.89289289    0.00003557
   63.00300300    0.00003531
   63.11311311    0.00003506
   63.22322322    0.00003484
   63.33333333    0.00003463
   63.44344344    0.00003444
   63.55355355    0.00003427
   63.66366366    0.00003413
   63.77377377    0.00003401
   63.88388388    0.00003392
   63.99399399    0.00003387
   64.10410410    0.00003386
   64.21421421    0.00003388
   64.32432432    0.00003395
   64.43443443    0.00003406
   64.54454454    0.00003421
   64.65465465    0.00003440
   64.76476476    0.00003464
   64.87487487    0.00003491
   64.98498498    0.00003521
   65.09509510    0.00003552
   65.20520521    0.00003586
   65.31531532    0.00003620
