# Final state angular momentum:   1
# Broadening parameter (in eV):    0.800
# Absorbing atom type (xiabs):   1
# Energy (eV)   sigma
  -10.00000000    0.00009839
   -9.88988989    0.00009993
   -9.77977978    0.00010151
   -9.66966967    0.00010314
   -9.55955956    0.00010480
   -9.44944945    0.00010651
   -9.33933934    0.00010827
   -9.22922923    0.00011008
   -9.11911912    0.00011194
   -9.00900901    0.00011386
   -8.89889890    0.00011583
   -8.78878879    0.00011785
   -8.67867868    0.00011994
   -8.56856857    0.00012209
   -8.45845846    0.00012430
   -8.34834835    0.00012659
   -8.23823824    0.00012894
   -8.12812813    0.00013137
   -8.01801802    0.00013388
   -7.90790791    0.00013646
   -7.79779780    0.00013914
   -7.68768769    0.00014190
   -7.57757758    0.00014476
   -7.46746747    0.00014771
   -7.35735736    0.00015077
   -7.24724725    0.00015394
   -7.13713714    0.00015722
   -7.02702703    0.00016062
   -6.91691692    0.00016414
   -6.80680681    0.00016780
   -6.69669670    0.00017160
   -6.58658659    0.00017555
   -6.47647648    0.00017965
   -6.36636637    0.00018392
   -6.25625626    0.00018836
   -6.14614615    0.00019299
   -6.03603604    0.00019781
   -5.92592593    0.00020284
   -5.81581582    0.00020809
   -5.70570571    0.00021357
   -5.59559560    0.00021930
   -5.48548549    0.00022530
   -5.37537538    0.00023158
   -5.26526527    0.00023816
   -5.15515516    0.00024507
   -5.04504505    0.00025232
   -4.93493493    0.00025995
   -4.82482482    0.00026797
   -4.71471471    0.00027642
   -4.60460460    0.00028532
   -4.49449449    0.00029473
   -4.38438438    0.00030467
   -4.27427427    0.00031519
   -4.16416416    0.00032634
   -4.05405405    0.00033818
   -3.94394394    0.00035075
   -3.83383383    0.00036413
   -3.72372372    0.00037840
   -3.61361361    0.00039363
   -3.50350350    0.00040992
   -3.39339339    0.00042737
   -3.28328328    0.00044610
   -3.17317317    0.00046625
   -3.06306306    0.00048797
   -2.95295295    0.00051143
   -2.84284284    0.00053683
   -2.73273273    0.00056440
   -2.62262262    0.00059440
   -2.51251251    0.00062713
   -2.40240240    0.00066295
   -2.29229229    0.00070226
   -2.18218218    0.00074555
   -2.07207207    0.00079337
   -1.96196196    0.00084639
   -1.85185185    0.00090539
   -1.74174174    0.00097132
   -1.63163163    0.00104529
   -1.52152152    0.00112863
   -1.41141141    0.00122294
   -1.30130130    0.00133012
   -1.19119119    0.00145246
   -1.08108108    0.00159266
   -0.97097097    0.00175382
   -0.86086086    0.00193951
   -0.75075075    0.00215354
   -0.64064064    0.00239970
   -0.53053053    0.00268120
   -0.42042042    0.00299991
   -0.31031031    0.00335556
   -0.20020020    0.00374565
   -0.09009009    0.00416530
    0.02002002    0.00460929
    0.13013013    0.00509348
    0.24024024    0.00560076
    0.35035035    0.00613360
    0.46046046    0.00667671
    0.57057057    0.00720114
    0.68068068    0.00766824
    0.79079079    0.00803698
    0.90090090    0.00826974
    1.01101101    0.00833527
    1.12112112    0.00821339
    1.23123123    0.00790340
    1.34134134    0.00743092
    1.45145145    0.00684488
    1.56156156    0.00620452
    1.67167167    0.00556377
    1.78178178    0.00496153
    1.89189189    0.00441973
    2.00200200    0.00394672
    2.11211211    0.00354205
    2.22222222    0.00320062
    2.33233233    0.00291551
    2.44244244    0.00267958
    2.55255255    0.00248630
    2.66266266    0.00233007
    2.77277277    0.00220630
    2.88288288    0.00211132
    2.99299299    0.00204229
    3.10310310    0.00199696
    3.21321321    0.00197344
    3.32332332    0.00196980
    3.43343343    0.00198372
    3.54354354    0.00201205
    3.65365365    0.00205081
    3.76376376    0.00209587
    3.87387387    0.00214440
    3.98398398    0.00219650
    4.09409409    0.00225579
    4.20420420    0.00232843
    4.31431431    0.00242128
    4.42442442    0.00254018
    4.53453453    0.00268874
    4.64464464    0.00286743
    4.75475475    0.00307261
    4.86486486    0.00329585
    4.97497497    0.00352400
    5.08508509    0.00374108
    5.19519520    0.00393160
    5.30530531    0.00408417
    5.41541542    0.00419375
    5.52552553    0.00426206
    5.63563564    0.00429650
    5.74574575    0.00430811
    5.85585586    0.00430944
    5.96596597    0.00431270
    6.07607608    0.00432830
    6.18618619    0.00436393
    6.29629630    0.00442409
    6.40640641    0.00451027
    6.51651652    0.00462158
    6.62662663    0.00475569
    6.73673674    0.00490886
    6.84684685    0.00507410
    6.95695696    0.00523914
    7.06706707    0.00538717
    7.17717718    0.00550165
    7.28728729    0.00557264
    7.39739740    0.00559984
    7.50750751    0.00558989
    7.61761762    0.00555128
    7.72772773    0.00549105
    7.83783784    0.00541468
    7.94794795    0.00532708
    8.05805806    0.00523280
    8.16816817    0.00513464
    8.27827828    0.00503193
    8.38838839    0.00492062
    8.49849850    0.00479658
    8.60860861    0.00465997
    8.71871872    0.00451710
    8.82882883    0.00437790
    8.93893894    0.00425157
    9.04904905    0.00414345
    9.15915916    0.00405455
    9.26926927    0.00398292
    9.37937938    0.00392546
    9.48948949    0.00387949
    9.59959960    0.00384339
    9.70970971    0.00381602
    9.81981982    0.00379563
    9.92992993    0.00377958
   10.04004004    0.00376494
   10.15015015    0.00374916
   10.26026026    0.00373003
   10.37037037    0.00370589
   10.48048048    0.00367661
   10.59059059    0.00364474
   10.70070070    0.00361522
   10.81081081    0.00359383
   10.92092092    0.00358497
   11.03103103    0.00358995
   11.14114114    0.00360678
   11.25125125    0.00363143
   11.36136136    0.00365995
   11.47147147    0.00369002
   11.58158158    0.00372131
   11.69169169    0.00375495
   11.80180180    0.00379276
   11.91191191    0.00383674
   12.02202202    0.00388790
   12.13213213    0.00394462
   12.24224224    0.00400136
   12.35235235    0.00404923
   12.46246246    0.00407901
   12.57257257    0.00408523
   12.68268268    0.00406909
   12.79279279    0.00403847
   12.90290290    0.00400539
   13.01301301    0.00398240
   13.12312312    0.00397939
   13.23323323    0.00400128
   13.34334334    0.00404668
   13.45345345    0.00410815
   13.56356356    0.00417450
   13.67367367    0.00423474
   13.78378378    0.00428196
   13.89389389    0.00431467
   14.00400400    0.00433503
   14.11411411    0.00434543
   14.22422422    0.00434639
   14.33433433    0.00433701
   14.44444444    0.00431684
   14.55455455    0.00428708
   14.66466466    0.00425084
   14.77477477    0.00421272
   14.88488488    0.00417833
   14.99499499    0.00415336
   15.10510511    0.00414226
   15.21521522    0.00414652
   15.32532533    0.00416304
   15.43543544    0.00418327
   15.54554555    0.00419447
   15.65565566    0.00418368
   15.76576577    0.00414298
   15.87587588    0.00407286
   15.98598599    0.00398165
   16.09609610    0.00388194
   16.20620621    0.00378641
   16.31631632    0.00370519
   16.42642643    0.00364509
   16.53653654    0.00361025
   16.64664665    0.00360339
   16.75675676    0.00362663
   16.86686687    0.00368130
   16.97697698    0.00376656
   17.08708709    0.00387767
   17.19719720    0.00400479
   17.30730731    0.00413327
   17.41741742    0.00424550
   17.52752753    0.00432367
   17.63763764    0.00435304
   17.74774775    0.00432549
   17.85785786    0.00424189
   17.96796797    0.00411158
   18.07807808    0.00394890
   18.18818819    0.00376933
   18.29829830    0.00358728
   18.40840841    0.00341480
   18.51851852    0.00326059
   18.62862863    0.00312913
   18.73873874    0.00302073
   18.84884885    0.00293273
   18.95895896    0.00286117
   19.06906907    0.00280247
   19.17917918    0.00275413
   19.28928929    0.00271457
   19.39939940    0.00268262
   19.50950951    0.00265715
   19.61961962    0.00263707
   19.72972973    0.00262130
   19.83983984    0.00260879
   19.94994995    0.00259851
   20.06006006    0.00258979
   20.17017017    0.00258281
   20.28028028    0.00257934
   20.39039039    0.00258279
   20.50050050    0.00259741
   20.61061061    0.00262629
   20.72072072    0.00266930
   20.83083083    0.00272145
   20.94094094    0.00277289
   21.05105105    0.00281115
   21.16116116    0.00282545
   21.27127127    0.00281124
   21.38138138    0.00277196
   21.49149149    0.00271676
   21.60160160    0.00265618
   21.71171171    0.00259866
   21.82182182    0.00254926
   21.93193193    0.00251002
   22.04204204    0.00248043
   22.15215215    0.00245778
   22.26226226    0.00243742
   22.37237237    0.00241397
   22.48248248    0.00238290
   22.59259259    0.00234220
   22.70270270    0.00229300
   22.81281281    0.00223940
   22.92292292    0.00218750
   23.03303303    0.00214398
   23.14314314    0.00211458
   23.25325325    0.00210287
   23.36336336    0.00210954
   23.47347347    0.00213201
   23.58358358    0.00216455
   23.69369369    0.00219919
   23.80380380    0.00222766
   23.91391391    0.00224405
   24.02402402    0.00224640
   24.13413413    0.00223644
   24.24424424    0.00221761
   24.35435435    0.00219336
   24.46446446    0.00216667
   24.57457457    0.00214028
   24.68468468    0.00211694
   24.79479479    0.00209918
   24.90490490    0.00208912
   25.01501502    0.00208834
   25.12512513    0.00209775
   25.23523524    0.00211750
   25.34534535    0.00214677
   25.45545546    0.00218353
   25.56556557    0.00222446
   25.67567568    0.00226549
   25.78578579    0.00230317
   25.89589590    0.00233622
   26.00600601    0.00236606
   26.11611612    0.00239592
   26.22622623    0.00242923
   26.33633634    0.00246850
   26.44644645    0.00251524
   26.55655656    0.00257040
   26.66666667    0.00263462
   26.77677678    0.00270764
   26.88688689    0.00278711
   26.99699700    0.00286742
   27.10710711    0.00293976
   27.21721722    0.00299373
   27.32732733    0.00302029
   27.43743744    0.00301485
   27.54754755    0.00297884
   27.65765766    0.00291896
   27.76776777    0.00284434
   27.87787788    0.00276301
   27.98798799    0.00267979
   28.09809810    0.00259643
   28.20820821    0.00251325
   28.31831832    0.00243101
   28.42842843    0.00235168
   28.53853854    0.00227823
   28.64864865    0.00221397
   28.75875876    0.00216187
   28.86886887    0.00212406
   28.97897898    0.00210141
   29.08908909    0.00209328
   29.19919920    0.00209766
   29.30930931    0.00211127
   29.41941942    0.00212973
   29.52952953    0.00214758
   29.63963964    0.00215884
   29.74974975    0.00215806
   29.85985986    0.00214195
   29.96996997    0.00211046
   30.08008008    0.00206672
   30.19019019    0.00201590
   30.30030030    0.00196360
   30.41041041    0.00191467
   30.52052052    0.00187269
   30.63063063    0.00183992
   30.74074074    0.00181739
   30.85085085    0.00180489
   30.96096096    0.00180105
   31.07107107    0.00180353
   31.18118118    0.00180941
   31.29129129    0.00181578
   31.40140140    0.00182037
   31.51151151    0.00182190
   31.62162162    0.00182028
   31.73173173    0.00181637
   31.84184184    0.00181134
   31.95195195    0.00180599
   32.06206206    0.00180033
   32.17217217    0.00179358
   32.28228228    0.00178436
   32.39239239    0.00177106
   32.50250250    0.00175222
   32.61261261    0.00172708
   32.72272272    0.00169592
   32.83283283    0.00166014
   32.94294294    0.00162184
   33.05305305    0.00158327
   33.16316316    0.00154638
   33.27327327    0.00151260
   33.38338338    0.00148262
   33.49349349    0.00145629
   33.60360360    0.00143262
   33.71371371    0.00141001
   33.82382382    0.00138667
   33.93393393    0.00136106
   34.04404404    0.00133215
   34.15415415    0.00129959
   34.26426426    0.00126370
   34.37437437    0.00122546
   34.48448448    0.00118640
   34.59459459    0.00114842
   34.70470470    0.00111329
   34.81481481    0.00108200
   34.92492492    0.00105437
   35.03503504    0.00102906
   35.14514515    0.00100420
   35.25525526    0.00097825
   35.36536537    0.00095088
   35.47547548    0.00092306
   35.58558559    0.00089669
   35.69569570    0.00087374
   35.80580581    0.00085566
   35.91591592    0.00084306
   36.02602603    0.00083570
   36.13613614    0.00083264
   36.24624625    0.00083247
   36.35635636    0.00083370
   36.46646647    0.00083499
   36.57657658    0.00083536
   36.68668669    0.00083422
   36.79679680    0.00083130
   36.90690691    0.00082667
   37.01701702    0.00082072
   37.12712713    0.00081415
   37.23723724    0.00080779
   37.34734735    0.00080234
   37.45745746    0.00079821
   37.56756757    0.00079531
   37.67767768    0.00079312
   37.78778779    0.00079079
   37.89789790    0.00078737
   38.00800801    0.00078200
   38.11811812    0.00077419
   38.22822823    0.00076387
   38.33833834    0.00075144
   38.44844845    0.00073751
   38.55855856    0.00072274
   38.66866867    0.00070763
   38.77877878    0.00069243
   38.88888889    0.00067726
   38.99899900    0.00066224
   39.10910911    0.00064768
   39.21921922    0.00063416
   39.32932933    0.00062246
   39.43943944    0.00061337
   39.54954955    0.00060753
   39.65965966    0.00060527
   39.76976977    0.00060655
   39.87987988    0.00061098
   39.98998999    0.00061784
   40.10010010    0.00062620
   40.21021021    0.00063508
   40.32032032    0.00064362
   40.43043043    0.00065115
   40.54054054    0.00065717
   40.65065065    0.00066124
   40.76076076    0.00066297
   40.87087087    0.00066212
   40.98098098    0.00065879
   41.09109109    0.00065348
   41.20120120    0.00064689
   41.31131131    0.00063965
   41.42142142    0.00063198
   41.53153153    0.00062365
   41.64164164    0.00061408
   41.75175175    0.00060252
   41.86186186    0.00058843
   41.97197197    0.00057169
   42.08208208    0.00055278
   42.19219219    0.00053262
   42.30230230    0.00051231
   42.41241241    0.00049276
   42.52252252    0.00047459
   42.63263263    0.00045801
   42.74274274    0.00044299
   42.85285285    0.00042942
   42.96296296    0.00041721
   43.07307307    0.00040640
   43.18318318    0.00039717
   43.29329329    0.00038977
   43.40340340    0.00038443
   43.51351351    0.00038127
   43.62362362    0.00038021
   43.73373373    0.00038083
   43.84384384    0.00038241
   43.95395395    0.00038389
   44.06406406    0.00038404
   44.17417417    0.00038180
   44.28428428    0.00037657
   44.39439439    0.00036848
   44.50450450    0.00035831
   44.61461461    0.00034725
   44.72472472    0.00033650
   44.83483483    0.00032703
   44.94494494    0.00031948
   45.05505506    0.00031412
   45.16516517    0.00031097
   45.27527528    0.00030982
   45.38538539    0.00031036
   45.49549550    0.00031223
   45.60560561    0.00031511
   45.71571572    0.00031875
   45.82582583    0.00032297
   45.93593594    0.00032764
   46.04604605    0.00033257
   46.15615616    0.00033756
   46.26626627    0.00034239
   46.37637638    0.00034688
   46.48648649    0.00035085
   46.59659660    0.00035405
   46.70670671    0.00035613
   46.81681682    0.00035667
   46.92692693    0.00035536
   47.03703704    0.00035215
   47.14714715    0.00034727
   47.25725726    0.00034112
   47.36736737    0.00033404
   47.47747748    0.00032619
   47.58758759    0.00031759
   47.69769770    0.00030818
   47.80780781    0.00029804
   47.91791792    0.00028743
   48.02802803    0.00027678
   48.13813814    0.00026657
   48.24824825    0.00025725
   48.35835836    0.00024913
   48.46846847    0.00024237
   48.57857858    0.00023703
   48.68868869    0.00023304
   48.79879880    0.00023027
   48.90890891    0.00022856
   49.01901902    0.00022778
   49.12912913    0.00022785
   49.23923924    0.00022876
   49.34934935    0.00023056
   49.45945946    0.00023328
   49.56956957    0.00023687
   49.67967968    0.00024109
   49.78978979    0.00024549
   49.89989990    0.00024940
   50.01001001    0.00025208
   50.12012012    0.00025289
   50.23023023    0.00025160
   50.34034034    0.00024845
   50.45045045    0.00024412
   50.56056056    0.00023951
   50.67067067    0.00023545
   50.78078078    0.00023262
   50.89089089    0.00023147
   51.00100100    0.00023219
   51.11111111    0.00023479
   51.22122122    0.00023903
   51.33133133    0.00024442
   51.44144144    0.00025024
   51.55155155    0.00025556
   51.66166166    0.00025943
   51.77177177    0.00026104
   51.88188188    0.00025997
   51.99199199    0.00025629
   52.10210210    0.00025049
   52.21221221    0.00024332
   52.32232232    0.00023556
   52.43243243    0.00022782
   52.54254254    0.00022046
   52.65265265    0.00021362
   52.76276276    0.00020728
   52.87287287    0.00020137
   52.98298298    0.00019584
   53.09309309    0.00019065
   53.20320320    0.00018578
   53.31331331    0.00018121
   53.42342342    0.00017688
   53.53353353    0.00017271
   53.64364364    0.00016864
   53.75375375    0.00016464
   53.86386386    0.00016070
   53.97397397    0.00015683
   54.08408408    0.00015307
   54.19419419    0.00014940
   54.30430430    0.00014583
   54.41441441    0.00014233
   54.52452452    0.00013890
   54.63463463    0.00013554
   54.74474474    0.00013225
   54.85485485    0.00012900
   54.96496496    0.00012577
   55.07507508    0.00012248
   55.18518519    0.00011909
   55.29529530    0.00011557
   55.40540541    0.00011193
   55.51551552    0.00010824
   55.62562563    0.00010458
   55.73573574    0.00010104
   55.84584585    0.00009766
   55.95595596    0.00009449
   56.06606607    0.00009153
   56.17617618    0.00008876
   56.28628629    0.00008617
   56.39639640    0.00008376
   56.50650651    0.00008153
   56.61661662    0.00007949
   56.72672673    0.00007768
   56.83683684    0.00007611
   56.94694695    0.00007479
   57.05705706    0.00007375
   57.16716717    0.00007298
   57.27727728    0.00007247
   57.38738739    0.00007220
   57.49749750    0.00007213
   57.60760761    0.00007219
   57.71771772    0.00007230
   57.82782783    0.00007234
   57.93793794    0.00007222
   58.04804805    0.00007184
   58.15815816    0.00007116
   58.26826827    0.00007018
   58.37837838    0.00006896
   58.48848849    0.00006756
   58.59859860    0.00006606
   58.70870871    0.00006451
   58.81881882    0.00006297
   58.92892893    0.00006146
   59.03903904    0.00006002
   59.14914915    0.00005867
   59.25925926    0.00005744
   59.36936937    0.00005631
   59.47947948    0.00005530
   59.58958959    0.00005437
   59.69969970    0.00005351
   59.80980981    0.00005267
   59.91991992    0.00005184
   60.03003003    0.00005097
   60.14014014    0.00005006
   60.25025025    0.00004910
   60.36036036    0.00004811
   60.47047047    0.00004710
   60.58058058    0.00004610
   60.69069069    0.00004513
   60.80080080    0.00004420
   60.91091091    0.00004332
   61.02102102    0.00004249
   61.13113113    0.00004170
   61.24124124    0.00004097
   61.35135135    0.00004029
   61.46146146    0.00003966
   61.57157157    0.00003907
   61.68168168    0.00003853
   61.79179179    0.00003804
   61.90190190    0.00003759
   62.01201201    0.00003718
   62.12212212    0.00003681
   62.23223223    0.00003647
   62.34234234    0.00003616
   62.45245245    0.00003588
   62.56256256    0.00003563
   62.67267267    0.00003540
   62.78278278    0.00003519
   62.89289289    0.00003500
   63.00300300    0.00003484
   63.11311311    0.00003469
   63.22322322    0.00003457
   63.33333333    0.00003446
   63.44344344    0.00003438
   63.55355355    0.00003431
   63.66366366    0.00003427
   63.77377377    0.00003425
   63.88388388    0.00003425
   63.99399399    0.00003427
   64.10410410    0.00003432
   64.21421421    0.00003439
   64.32432432    0.00003450
   64.43443443    0.00003463
   64.54454454    0.00003479
   64.65465465    0.00003499
   64.76476476    0.00003523
   64.87487487    0.00003551
   64.98498498    0.00003583
   65.09509510    0.00003620
   65.20520521    0.00003662
   65.31531532    0.00003709
