#       Energy(Ry)            Total                 X                  Y                   Z
      0.00000000E+00      0.00000000E+00      0.00000000E+00      0.00000000E+00      0.00000000E+00
      0.10000000E-02      0.44602024E-05      0.14883678E-05      0.14835747E-05      0.14882598E-05
      0.20000000E-02      0.89472829E-05      0.29857043E-05      0.29760910E-05      0.29854876E-05
      0.30000000E-02      0.13461425E-04      0.44920708E-05      0.44776099E-05      0.44917443E-05
      0.40000000E-02      0.18002813E-04      0.60075289E-05      0.59881928E-05      0.60070918E-05
      0.50000000E-02      0.22571635E-04      0.75321407E-05      0.75079017E-05      0.75315922E-05
      0.60000000E-02      0.27168076E-04      0.90659690E-05      0.90367991E-05      0.90653082E-05
      0.70000000E-02      0.31792328E-04      0.10609077E-04      0.10574948E-04      0.10608303E-04
      0.80000000E-02      0.36444581E-04      0.12161528E-04      0.12122412E-04      0.12160640E-04
      0.90000000E-02      0.41125026E-04      0.13723387E-04      0.13679255E-04      0.13722384E-04
      0.10000000E-01      0.45833860E-04      0.15294718E-04      0.15245542E-04      0.15293599E-04
      0.11000000E-01      0.50571276E-04      0.16875587E-04      0.16821338E-04      0.16874351E-04
      0.12000000E-01      0.55337473E-04      0.18466060E-04      0.18406708E-04      0.18464705E-04
      0.13000000E-01      0.60132650E-04      0.20066202E-04      0.20001719E-04      0.20064729E-04
      0.14000000E-01      0.64957006E-04      0.21676081E-04      0.21606437E-04      0.21674488E-04
      0.15000000E-01      0.69810745E-04      0.23295764E-04      0.23220930E-04      0.23294050E-04
      0.16000000E-01      0.74694069E-04      0.24925320E-04      0.24845265E-04      0.24923484E-04
      0.17000000E-01      0.79607185E-04      0.26564816E-04      0.26479512E-04      0.26562857E-04
      0.18000000E-01      0.84550300E-04      0.28214322E-04      0.28123738E-04      0.28212240E-04
      0.19000000E-01      0.89523623E-04      0.29873908E-04      0.29778013E-04      0.29871701E-04
      0.20000000E-01      0.94527364E-04      0.31543644E-04      0.31442408E-04      0.31541312E-04
      0.21000000E-01      0.99561736E-04      0.33223601E-04      0.33116993E-04      0.33221142E-04
      0.22000000E-01      0.10462695E-03      0.34913851E-04      0.34801840E-04      0.34911264E-04
      0.23000000E-01      0.10972323E-03      0.36614465E-04      0.36497020E-04      0.36611749E-04
      0.24000000E-01      0.11485079E-03      0.38325516E-04      0.38202605E-04      0.38322670E-04
      0.25000000E-01      0.12000985E-03      0.40047078E-04      0.39918670E-04      0.40044101E-04
      0.26000000E-01      0.12520063E-03      0.41779225E-04      0.41645288E-04      0.41776116E-04
      0.27000000E-01      0.13042335E-03      0.43522030E-04      0.43382532E-04      0.43518788E-04
      0.28000000E-01      0.13567824E-03      0.45275570E-04      0.45130479E-04      0.45272193E-04
      0.29000000E-01      0.14096553E-03      0.47039919E-04      0.46889203E-04      0.47036408E-04
      0.30000000E-01      0.14628544E-03      0.48815155E-04      0.48658781E-04      0.48811507E-04
      0.31000000E-01      0.15163821E-03      0.50601355E-04      0.50439289E-04      0.50597569E-04
      0.32000000E-01      0.15702407E-03      0.52398596E-04      0.52230806E-04      0.52394672E-04
      0.33000000E-01      0.16244326E-03      0.54206957E-04      0.54033409E-04      0.54202892E-04
      0.34000000E-01      0.16789600E-03      0.56026516E-04      0.55847178E-04      0.56022311E-04
      0.35000000E-01      0.17338255E-03      0.57857354E-04      0.57672191E-04      0.57853007E-04
      0.36000000E-01      0.17890314E-03      0.59699551E-04      0.59508529E-04      0.59695060E-04
      0.37000000E-01      0.18445801E-03      0.61553188E-04      0.61356273E-04      0.61548553E-04
      0.38000000E-01      0.19004742E-03      0.63418346E-04      0.63215504E-04      0.63413566E-04
      0.39000000E-01      0.19567160E-03      0.65295110E-04      0.65086306E-04      0.65290182E-04
      0.40000000E-01      0.20133080E-03      0.67183560E-04      0.66968760E-04      0.67178485E-04
      0.41000000E-01      0.20702529E-03      0.69083783E-04      0.68862950E-04      0.69078558E-04
      0.42000000E-01      0.21275531E-03      0.70995861E-04      0.70768961E-04      0.70990486E-04
      0.43000000E-01      0.21852111E-03      0.72919881E-04      0.72686878E-04      0.72914354E-04
      0.44000000E-01      0.22432296E-03      0.74855929E-04      0.74616787E-04      0.74850249E-04
      0.45000000E-01      0.23016112E-03      0.76804091E-04      0.76558774E-04      0.76798257E-04
      0.46000000E-01      0.23603585E-03      0.78764455E-04      0.78512927E-04      0.78758466E-04
      0.47000000E-01      0.24194741E-03      0.80737110E-04      0.80479334E-04      0.80730964E-04
      0.48000000E-01      0.24789607E-03      0.82722145E-04      0.82458084E-04      0.82715840E-04
      0.49000000E-01      0.25388210E-03      0.84719649E-04      0.84449267E-04      0.84713185E-04
      0.50000000E-01      0.25990577E-03      0.86729713E-04      0.86452972E-04      0.86723089E-04
      0.51000000E-01      0.26596736E-03      0.88752430E-04      0.88469292E-04      0.88745643E-04
      0.52000000E-01      0.27206715E-03      0.90787890E-04      0.90498318E-04      0.90780940E-04
      0.53000000E-01      0.27820540E-03      0.92836188E-04      0.92540143E-04      0.92829073E-04
      0.54000000E-01      0.28438241E-03      0.94897416E-04      0.94594860E-04      0.94890135E-04
      0.55000000E-01      0.29059846E-03      0.96971671E-04      0.96662565E-04      0.96964223E-04
      0.56000000E-01      0.29685383E-03      0.99059047E-04      0.98743353E-04      0.99051430E-04
      0.57000000E-01      0.30314881E-03      0.10115964E-03      0.10083732E-03      0.10115185E-03
      0.58000000E-01      0.30948370E-03      0.10327355E-03      0.10294456E-03      0.10326559E-03
      0.59000000E-01      0.31585879E-03      0.10540087E-03      0.10506518E-03      0.10539274E-03
      0.60000000E-01      0.32227437E-03      0.10754171E-03      0.10719926E-03      0.10753340E-03
      0.61000000E-01      0.32873075E-03      0.10969615E-03      0.10934692E-03      0.10968767E-03
      0.62000000E-01      0.33522822E-03      0.11186431E-03      0.11150826E-03      0.11185565E-03
      0.63000000E-01      0.34176710E-03      0.11404629E-03      0.11368336E-03      0.11403745E-03
      0.64000000E-01      0.34834768E-03      0.11624218E-03      0.11587234E-03      0.11623316E-03
      0.65000000E-01      0.35497028E-03      0.11845209E-03      0.11807530E-03      0.11844289E-03
      0.66000000E-01      0.36163522E-03      0.12067613E-03      0.12029235E-03      0.12066674E-03
      0.67000000E-01      0.36834280E-03      0.12291439E-03      0.12252358E-03      0.12290482E-03
      0.68000000E-01      0.37509335E-03      0.12516700E-03      0.12476911E-03      0.12515724E-03
      0.69000000E-01      0.38188718E-03      0.12743404E-03      0.12702904E-03      0.12742410E-03
      0.70000000E-01      0.38872463E-03      0.12971564E-03      0.12930348E-03      0.12970551E-03
      0.71000000E-01      0.39560602E-03      0.13201191E-03      0.13159253E-03      0.13200158E-03
      0.72000000E-01      0.40253167E-03      0.13432294E-03      0.13389631E-03      0.13431242E-03
      0.73000000E-01      0.40950193E-03      0.13664885E-03      0.13621494E-03      0.13663814E-03
      0.74000000E-01      0.41651713E-03      0.13898976E-03      0.13854851E-03      0.13897885E-03
      0.75000000E-01      0.42357760E-03      0.14134578E-03      0.14089715E-03      0.14133467E-03
      0.76000000E-01      0.43068369E-03      0.14371702E-03      0.14326096E-03      0.14370571E-03
      0.77000000E-01      0.43783575E-03      0.14610360E-03      0.14564007E-03      0.14609209E-03
      0.78000000E-01      0.44503413E-03      0.14850563E-03      0.14803458E-03      0.14849392E-03
      0.79000000E-01      0.45227917E-03      0.15092323E-03      0.15044462E-03      0.15091131E-03
      0.80000000E-01      0.45957123E-03      0.15335652E-03      0.15287031E-03      0.15334440E-03
      0.81000000E-01      0.46691067E-03      0.15580562E-03      0.15531176E-03      0.15579329E-03
      0.82000000E-01      0.47429785E-03      0.15827065E-03      0.15776909E-03      0.15825811E-03
      0.83000000E-01      0.48173314E-03      0.16075173E-03      0.16024242E-03      0.16073898E-03
      0.84000000E-01      0.48921690E-03      0.16324899E-03      0.16273188E-03      0.16323602E-03
      0.85000000E-01      0.49674950E-03      0.16576255E-03      0.16523759E-03      0.16574936E-03
      0.86000000E-01      0.50433133E-03      0.16829252E-03      0.16775968E-03      0.16827912E-03
      0.87000000E-01      0.51196275E-03      0.17083905E-03      0.17029827E-03      0.17082543E-03
      0.88000000E-01      0.51964416E-03      0.17340225E-03      0.17285349E-03      0.17338841E-03
      0.89000000E-01      0.52737593E-03      0.17598226E-03      0.17542546E-03      0.17596820E-03
      0.90000000E-01      0.53515846E-03      0.17857921E-03      0.17801432E-03      0.17856492E-03
      0.91000000E-01      0.54299213E-03      0.18119322E-03      0.18062020E-03      0.18117871E-03
      0.92000000E-01      0.55087735E-03      0.18382443E-03      0.18324323E-03      0.18380969E-03
      0.93000000E-01      0.55881452E-03      0.18647298E-03      0.18588353E-03      0.18645800E-03
      0.94000000E-01      0.56680403E-03      0.18913899E-03      0.18854126E-03      0.18912378E-03
      0.95000000E-01      0.57484630E-03      0.19182260E-03      0.19121653E-03      0.19180716E-03
      0.96000000E-01      0.58294174E-03      0.19452396E-03      0.19390950E-03      0.19450828E-03
      0.97000000E-01      0.59109076E-03      0.19724319E-03      0.19662029E-03      0.19722728E-03
      0.98000000E-01      0.59929378E-03      0.19998044E-03      0.19934905E-03      0.19996429E-03
      0.99000000E-01      0.60755123E-03      0.20273586E-03      0.20209592E-03      0.20271946E-03
      0.10000000E+00      0.61586354E-03      0.20550957E-03      0.20486104E-03      0.20549293E-03
      0.10100000E+00      0.62423112E-03      0.20830174E-03      0.20764455E-03      0.20828484E-03
      0.10200000E+00      0.63265443E-03      0.21111249E-03      0.21044659E-03      0.21109535E-03
      0.10300000E+00      0.64113390E-03      0.21394198E-03      0.21326733E-03      0.21392459E-03
      0.10400000E+00      0.64966997E-03      0.21679036E-03      0.21610689E-03      0.21677272E-03
      0.10500000E+00      0.65826309E-03      0.21965778E-03      0.21896544E-03      0.21963988E-03
      0.10600000E+00      0.66691372E-03      0.22254438E-03      0.22184311E-03      0.22252622E-03
      0.10700000E+00      0.67562230E-03      0.22545032E-03      0.22474007E-03      0.22543191E-03
      0.10800000E+00      0.68438931E-03      0.22837576E-03      0.22765647E-03      0.22835708E-03
      0.10900000E+00      0.69321521E-03      0.23132085E-03      0.23059246E-03      0.23130190E-03
      0.11000000E+00      0.70210046E-03      0.23428573E-03      0.23354820E-03      0.23426652E-03
      0.11100000E+00      0.71104554E-03      0.23727059E-03      0.23652384E-03      0.23725110E-03
      0.11200000E+00      0.72005093E-03      0.24027556E-03      0.23951955E-03      0.24025581E-03
      0.11300000E+00      0.72911711E-03      0.24330083E-03      0.24253549E-03      0.24328080E-03
      0.11400000E+00      0.73824458E-03      0.24634654E-03      0.24557181E-03      0.24632623E-03
      0.11500000E+00      0.74743382E-03      0.24941286E-03      0.24862869E-03      0.24939227E-03
      0.11600000E+00      0.75668533E-03      0.25249996E-03      0.25170629E-03      0.25247909E-03
      0.11700000E+00      0.76599962E-03      0.25560800E-03      0.25480477E-03      0.25558685E-03
      0.11800000E+00      0.77537720E-03      0.25873716E-03      0.25792431E-03      0.25871573E-03
      0.11900000E+00      0.78481857E-03      0.26188761E-03      0.26106507E-03      0.26186589E-03
      0.12000000E+00      0.79432425E-03      0.26505952E-03      0.26422723E-03      0.26503750E-03
      0.12100000E+00      0.80389477E-03      0.26825306E-03      0.26741096E-03      0.26823075E-03
      0.12200000E+00      0.81353065E-03      0.27146841E-03      0.27061644E-03      0.27144580E-03
      0.12300000E+00      0.82323243E-03      0.27470575E-03      0.27384384E-03      0.27468284E-03
      0.12400000E+00      0.83300065E-03      0.27796525E-03      0.27709335E-03      0.27794204E-03
      0.12500000E+00      0.84283585E-03      0.28124711E-03      0.28036515E-03      0.28122359E-03
      0.12600000E+00      0.85273857E-03      0.28455149E-03      0.28365941E-03      0.28452767E-03
      0.12700000E+00      0.86270938E-03      0.28787860E-03      0.28697632E-03      0.28785446E-03
      0.12800000E+00      0.87274883E-03      0.29122860E-03      0.29031607E-03      0.29120416E-03
      0.12900000E+00      0.88285749E-03      0.29460170E-03      0.29367884E-03      0.29457694E-03
      0.13000000E+00      0.89303593E-03      0.29799808E-03      0.29706484E-03      0.29797300E-03
      0.13100000E+00      0.90328472E-03      0.30141794E-03      0.30047424E-03      0.30139254E-03
      0.13200000E+00      0.91360446E-03      0.30486147E-03      0.30390725E-03      0.30483574E-03
      0.13300000E+00      0.92399573E-03      0.30832886E-03      0.30736405E-03      0.30830281E-03
      0.13400000E+00      0.93445911E-03      0.31182032E-03      0.31084485E-03      0.31179394E-03
      0.13500000E+00      0.94499522E-03      0.31533605E-03      0.31434985E-03      0.31530933E-03
      0.13600000E+00      0.95560467E-03      0.31887624E-03      0.31787924E-03      0.31884919E-03
      0.13700000E+00      0.96628805E-03      0.32244110E-03      0.32143324E-03      0.32241371E-03
      0.13800000E+00      0.97704600E-03      0.32603085E-03      0.32501204E-03      0.32600311E-03
      0.13900000E+00      0.98787913E-03      0.32964567E-03      0.32861586E-03      0.32961759E-03
      0.14000000E+00      0.99878808E-03      0.33328580E-03      0.33224491E-03      0.33325737E-03
      0.14100000E+00      0.10097735E-02      0.33695144E-03      0.33589939E-03      0.33692266E-03
      0.14200000E+00      0.10208360E-02      0.34064280E-03      0.33957953E-03      0.34061367E-03
      0.14300000E+00      0.10319763E-02      0.34436011E-03      0.34328554E-03      0.34433062E-03
      0.14400000E+00      0.10431949E-02      0.34810358E-03      0.34701763E-03      0.34807372E-03
      0.14500000E+00      0.10544927E-02      0.35187343E-03      0.35077604E-03      0.35184321E-03
      0.14600000E+00      0.10658702E-02      0.35566989E-03      0.35456097E-03      0.35563930E-03
      0.14700000E+00      0.10773281E-02      0.35949319E-03      0.35837267E-03      0.35946223E-03
      0.14800000E+00      0.10888671E-02      0.36334355E-03      0.36221136E-03      0.36331221E-03
      0.14900000E+00      0.11004879E-02      0.36722120E-03      0.36607726E-03      0.36718949E-03
      0.15000000E+00      0.11121913E-02      0.37112638E-03      0.36997061E-03      0.37109429E-03
      0.15100000E+00      0.11239778E-02      0.37505933E-03      0.37389165E-03      0.37502685E-03
      0.15200000E+00      0.11358483E-02      0.37902028E-03      0.37784061E-03      0.37898741E-03
      0.15300000E+00      0.11478034E-02      0.38300946E-03      0.38181773E-03      0.38297620E-03
      0.15400000E+00      0.11598439E-02      0.38702714E-03      0.38582326E-03      0.38699348E-03
      0.15500000E+00      0.11719705E-02      0.39107355E-03      0.38985744E-03      0.39103949E-03
      0.15600000E+00      0.11841839E-02      0.39514894E-03      0.39392052E-03      0.39511448E-03
      0.15700000E+00      0.11964850E-02      0.39925355E-03      0.39801275E-03      0.39921869E-03
      0.15800000E+00      0.12088744E-02      0.40338766E-03      0.40213439E-03      0.40335238E-03
      0.15900000E+00      0.12213530E-02      0.40755150E-03      0.40628568E-03      0.40751581E-03
      0.16000000E+00      0.12339215E-02      0.41174535E-03      0.41046688E-03      0.41170924E-03
      0.16100000E+00      0.12465807E-02      0.41596946E-03      0.41467827E-03      0.41593293E-03
      0.16200000E+00      0.12593313E-02      0.42022410E-03      0.41892009E-03      0.42018714E-03
      0.16300000E+00      0.12721743E-02      0.42450953E-03      0.42319263E-03      0.42447213E-03
      0.16400000E+00      0.12851104E-02      0.42882602E-03      0.42749614E-03      0.42878820E-03
      0.16500000E+00      0.12981403E-02      0.43317385E-03      0.43183090E-03      0.43313559E-03
      0.16600000E+00      0.13112651E-02      0.43755330E-03      0.43619719E-03      0.43751459E-03
      0.16700000E+00      0.13244854E-02      0.44196464E-03      0.44059529E-03      0.44192549E-03
      0.16800000E+00      0.13378022E-02      0.44640815E-03      0.44502547E-03      0.44636855E-03
      0.16900000E+00      0.13512162E-02      0.45088413E-03      0.44948802E-03      0.45084407E-03
      0.17000000E+00      0.13647284E-02      0.45539285E-03      0.45398322E-03      0.45535233E-03
      0.17100000E+00      0.13783396E-02      0.45993462E-03      0.45851138E-03      0.45989363E-03
      0.17200000E+00      0.13920508E-02      0.46450971E-03      0.46307277E-03      0.46446826E-03
      0.17300000E+00      0.14058627E-02      0.46911844E-03      0.46766771E-03      0.46907652E-03
      0.17400000E+00      0.14197763E-02      0.47376111E-03      0.47229648E-03      0.47371870E-03
      0.17500000E+00      0.14337925E-02      0.47843800E-03      0.47695940E-03      0.47839512E-03
      0.17600000E+00      0.14479123E-02      0.48314945E-03      0.48165676E-03      0.48310608E-03
      0.17700000E+00      0.14621365E-02      0.48789575E-03      0.48638888E-03      0.48785188E-03
      0.17800000E+00      0.14764661E-02      0.49267721E-03      0.49115608E-03      0.49263286E-03
      0.17900000E+00      0.14909021E-02      0.49749417E-03      0.49595866E-03      0.49744931E-03
      0.18000000E+00      0.15054455E-02      0.50234693E-03      0.50079696E-03      0.50230157E-03
      0.18100000E+00      0.15200971E-02      0.50723583E-03      0.50567128E-03      0.50718995E-03
      0.18200000E+00      0.15348580E-02      0.51216118E-03      0.51058197E-03      0.51211480E-03
      0.18300000E+00      0.15497291E-02      0.51712334E-03      0.51552935E-03      0.51707643E-03
      0.18400000E+00      0.15647116E-02      0.52212262E-03      0.52051376E-03      0.52207518E-03
      0.18500000E+00      0.15798063E-02      0.52715937E-03      0.52553553E-03      0.52711140E-03
      0.18600000E+00      0.15950144E-02      0.53223393E-03      0.53059501E-03      0.53218543E-03
      0.18700000E+00      0.16103368E-02      0.53734665E-03      0.53569255E-03      0.53729761E-03
      0.18800000E+00      0.16257747E-02      0.54249788E-03      0.54082849E-03      0.54244829E-03
      0.18900000E+00      0.16413290E-02      0.54768797E-03      0.54600319E-03      0.54763784E-03
      0.19000000E+00      0.16570009E-02      0.55291729E-03      0.55121700E-03      0.55286660E-03
      0.19100000E+00      0.16727914E-02      0.55818619E-03      0.55647029E-03      0.55813494E-03
      0.19200000E+00      0.16887017E-02      0.56349505E-03      0.56176343E-03      0.56344323E-03
      0.19300000E+00      0.17047328E-02      0.56884423E-03      0.56709678E-03      0.56879184E-03
      0.19400000E+00      0.17208860E-02      0.57423411E-03      0.57247071E-03      0.57418114E-03
      0.19500000E+00      0.17371622E-02      0.57966507E-03      0.57788562E-03      0.57961152E-03
      0.19600000E+00      0.17535627E-02      0.58513750E-03      0.58334188E-03      0.58508336E-03
